
0
0
0
0
0
0
0
0
0
0
0
0
0
0
0
0
0
0
0
0
0
0
0
0
0
0
0
0
0
0
0
0
0
0
0
0
0
0
0
0
0
0
0
0
0
0
0
0
0
0
0
0
0
0
0
0
0
0
0
0
0
0
0
0
0
0
0
0
0
0
0
0
0
0
0
0
0
0
0
0
0
0
0
0
0
0
0
0
0
0
0
0
0
0
0
0
0
0
0
0
0
0
0
0
0
0
0
0
0
0
0
0
0
0
0
0
0
0
0
0
0
0
0
0
0
0
0
0
0
0
0
0
0
0
0
0
0
0
0
0
0
0
0
0
0
0
0
0
0
0
0
0
0
0
0
0
0
0
0
0
0
0
0
0
0
0
0
0
0
0
0
0
0
0
0
0
0
0
0
0
0
0
0
0
0
0
0
0
0
0
0
0
0
0
0
0
0
0
0
0
0
0
0
0
0
0
0
0
0
0
0
0
0
0
0
0
0
0
0
0
0
0
0
0
0
0
0
0
0
0
0
0
0
0
0
0
0
0
0
0
0
0
0
0
0
0
0
0
0
0
0
0
0
0
0
0
0
0
0
0
0
0
0
0
0
0
0
0
0
0
0
0
0
0
0
0
0
0
0
0
0
0
0
0
0
0
0
0
0
0
0
0
0
0
0
0
0
0
0
0
0
0
0
0
0
0
0
0
0
0
0
0
0
0
0
0
0
0
0
0
0
0
0
0
0
0
0
0
0
0
0
0
0
0
0
0
0
0
0
0
0
0
0
0
0
0
0
0
0
0
0
0
0
0
0
0
0
0
0
0
0
0
0
0
0
0
0
0
0
0
0
0
0
0
0
0
0
0
0
0
0
0
0
0
0
0
0
0
0
0
0
0
0
0
0
0
0
0
0
0
0
0
0
0
0
0
0
0
0
0
0
0
0
0
0
0
0
0
0
0
0
0
0
0
0
0
0
0
0
0
0
0
0
0
0
0
0
0
0
0
0
0
0
0
0
0
0
0
0
0
0
0
0
0
0
0
0
0
0
0
0
0
0
0
0
0
0
0
0
0
0
0
0
0
0
0
0
0
0
0
0
0
0
0
0
0
0
0
0
0
0
0
0
0
0
0
0
0
0
0
0
0
0
0
0
0
0
0
0
0
0
0
0
0
0
0
0
0
0
0
0
0
0
0
0
0
0
0
0
0
0
0
0
0
0
0
0
0
0
0
0
0
0
0
0
0
0
0
0
0
0
0
0
0
0
0
0
0
0
0
0
0
0
0
0
0
0
0
0
0
0
0
0
0
0
0
0
0
0
0
0
0
0
0
0
0
0
0
0
0
0
0
0
0
0
0
0
0
0
0
0
0
0
0
0
0
0
0
0
0
0
0
0
0
0
0
0
0
0
0
0
0
0
0
0
0
0
0
0
0
0
0
0
0
0
0
0
0
0
0
0
0
0
0
0
0
0
0
0
0
0
0
0
0
0
0
0
0
0
0
0
0
0
0
0
0
0
0
0
0
0
0
0
0
0
0
0
0
0
0
0
0
0
0
0
0
0
0
0
0
0
0
0
0
0
0
0
0
0
0
0
0
0
0
0
0
0
0
0
0
0
0
0
0
0
0
0
0
0
0
0
0
0
0
0
0
0
0
0
0
0
0
0
0
0
0
0
0
0
0
0
0
0
0
0
0
0
0
0
0
0
0
0
0
0
0
0
0
0
0
0
0
0
0
0
0
0
0
0
0
0
0
0
0
0
0
0
0
0
0
0
0
0
0
0
0
0
0
0
0
0
0
0
0
0
0
0
0
0
0
0
0
0
0
0
0
0
0
0
0
0
0
0
0
0
0
0
0
0
0
0
0
0
0
0
0
0
0
0
0
0
0
0
0
0
0
0
0
0
0
0
0
0
0
0
0
0
0
0
0
0
0
0
0
0
0
0
0
0
0
0
0
0
0
0
0
0
0
0
0
0
0
0
0
0
0
0
0
0
0
0
0
0
0
0
0
0
0
0
0
0
0
0
0
0
0
0
0
0
0
0
0
0
0
0
0
0
0
0
0
0
0
0
0
0
0
0
0
0
0
0
0
0
0
0
0
0
0
0
0
0
0
0
0
0
0
0
0
0
0
0
0
0
0
0
0
0
0
0
0
0
0
0
0
0
0
0
0
0
0
0
0
0
0
0
0
0
0
0
0
0
0
0
0
0
0
0
0
0
0
0
0
0
0
0
0
0
0
0
0
0
0
0
0
0
0
0
0
0
0
0
0
0
0
0
0
0
0
0
0
0
0
0
0
0
0
0
0
0
0
0
0
0
0
0
0
0
0
0
0
0
0
0
0
0
0
0
0
0
0
0
0
0
0
0
0
0
0
0
0
0
0
0
0
0
0
0
0
0
0
0
0
0
0
0
0
0
0
0
0
0
0
0
0
0
0
0
0
0
0
0
0
0
0
0
0
0
0
0
0
0
0
0
0
0
0
0
0
0
0
0
0
0
0
0
0
0
0
0
0
0
0
0
0
0
0
0
0
0
0
0
0
0
0
0
0
0
0
0
0
0
0
0
0
0
0
0
0
0
0
0
0
0
0
0
0
0
0
0
0
0
0
0
0
0
0
0
0
0
0
0
0
0
0
0
0
0
0
0
0
0
0
0
0
0
0
0
0
0
0
0
0
0
0
0
0
0
0
0
0
0
0
0
0
0
0
0
0
0
0
0
0
0
0
0
0
0
0
0
0
0
0
0
0
0
0
0
0
0
0
0
0
0
0
0
0
0
0
0
0
0
0
0
0
0
0
0
0
0
0
0
0
0
0
0
0
0
0
0
0
0
0
0
0
0
0
0
0
0
0
0
0
0
0
0
0
0
0
0
0
0
0
0
0
0
0
0
0
0
0
0
0
0
0
0
0
0
0
0
0
0
0
0
0
0
0
0
0
0
0
0
0
0
0
0
0
0
0
0
0
0
0
0
0
0
0
0
0
0
0
0
0
0
0
0
0
0
0
0
0
0
0
0
0
0
0
0
0
0
0
0
0
0
0
0
0
0
0
0
0
0
0
0
0
0
0
0
0
0
0
0
0
0
0
0
0
0
0
0
0
0
0
0
0
0
0
0
0
0
0
0
0
0
0
0
0
0
0
0
0
0
0
0
0
0
0
0
0
0
0
0
0
0
0
0
0
0
0
0
0
0
0
0
0
0
0
0
0
0
0
0
0
0
0
0
0
0
0
0
0
0
0
0
0
0
0
0
0
0
0
0
0
0
0
0
0
0
0
0
0
0
0
0
0
0
0
0
0
0
0
0
0
0
0
0
0
0
0
0
0
0
0
0
0
0
0
0
0
0
0
0
0
0
0
0
0
0
0
0
0
0
0
0
0
0
0
0
0
0
0
0
0
0
0
0
0
0
0
0
0
0
0
0
0
0
0
0
0
0
0
0
0
0
0
0
0
0
0
0
0
0
0
0
0
0
0
0
0
0
0
0
0
0
0
0
0
0
0
0
0
0
0
0
0
0
0
0
0
0
0
0
0
0
0
0
0
0
0
0
0
0
0
0
0
0
0
0
0
0
0
0
0
0
0
0
0
0
0
0
0
0
0
0
0
0
0
0
0
0
0
0
0
0
0
0
0
0
0
0
0
0
0
0
0
0
0
0
0
0
0
0
0
0
0
0
0
0
0
0
0
0
0
0
0
0
0
0
0
0
0
0
0
0
0
0
0
0
0
0
0
0
0
0
0
0
0
0
0
0
0
0
0
0
0
0
0
0
0
0
0
0
0
0
0
0
0
0
0
0
0
0
0
0
0
0
0
0
0
0
0
0
0
0
0
0
0
0
0
0
0
0
0
0
0
0
0
0
0
0
0
0
0
0
0
0
0
0
0
0
0
0
0
0
0
0
0
0
0
0
0
0
0
0
0
0
0
0
0
0
0
0
0
0
0
0
0
0
0
0
0
0
0
0
0
0
0
0
0
0
0
0
0
0
0
0
0
0
0
0
0
0
0
0
0
0
0
0
0
0
0
0
0
0
0
0
0
0
0
0
0
0
0
0
0
0
0
0
0
0
0
0
0
0
0
0
0
0
0
0
0
0
0
0
0
0
0
0
0
0
0
0
0
0
0
0
0
0
0
0
0
0
0
0
0
0
0
0
0
0
0
0
0
0
0
0
0
0
0
0
0
0
0
0
0
0
0
0
0
0
0
0
0
0
0
0
0
0
0
0
0
0
0
0
0
0
0
0
0
0
0
0
0
0
0
0
0
0
0
0
0
0
0
0
0
0
0
0
0
0
0
0
0
0
0
0
0
0
0
0
0
0
0
0
0
0
0
0
0
0
0
0
0
0
0
0
0
0
0
0
0
0
0
0
0
0
0
0
0
0
0
0
0
0
0
0
0
0
0
0
0
0
0
0
0
0
0
0
0
0
0
0
0
0
0
0
0
0
0
0
0
0
0
0
0
0
0
0
0
0
0
0
0
0
0
0
0
0
0
0
0
0
0
0
0
0
0
0
0
0
0
0
0
0
0
0
0
0
0
0
0
0
0
0
0
0
0
0
0
0
0
0
0
0
0
0
0
0
0
0
0
0
0
0
0
0
0
0
0
0
0
0
0
0
0
0
0
0
0
0
0
0
0
0
0
0
0
0
0
0
0
0
0
0
0
0
0
0
0
0
0
0
0
0
0
0
0
0
0
0
0
0
0
0
0
0
0
0
0
0
0
0
0
0
0
0
0
0
0
0
0
0
0
0
0
0
0
0
0
0
0
0
0
0
0
0
0
0
0
0
0
0
0
0
0
0
0
0
0
0
0
0
0
0
0
0
0
0
0
0
0
0
0
0
0
0
0
0
0
0
0
0
0
0
0
0
0
0
0
0
0
0
0
0
0
0
0
0
0
0
0
0
0
0
0
0
0
0
0
0
0
0
0
0
0
0
-1
0
-1
0
-1
0
-1
0
-1
0
-2
2
-7
-22
-20
-24
-27
-31
-35
-41
-45
-52
-55
-62
-66
-72
-78
-82
-90
-96
-103
-107
-115
-122
-126
-131
-137
-144
-150
-156
-162
-166
-172
-178
-183
-189
-196
-203
-207
-213
-219
-226
-232
-236
-243
-247
-255
-259
-264
-270
-274
-280
-286
-291
-297
-303
-310
-314
-318
-325
-330
-335
-342
-346
-351
-358
-362
-368
-373
-378
-383
-390
-393
-401
-405
-410
-418
-421
-425
-432
-436
-441
-445
-451
-456
-462
-467
-472
-477
-480
-486
-490
-496
-500
-505
-511
-516
-521
-525
-530
-536
-540
-544
-550
-557
-559
-565
-569
-574
-580
-583
-587
-593
-597
-602
-607
-612
-616
-623
-625
-630
-635
-641
-646
-648
-653
-656
-663
-667
-671
-676
-680
-685
-688
-693
-699
-703
-707
-711
-715
-718
-724
-729
-732
-736
-742
-746
-750
-754
-758
-763
-766
-771
-776
-778
-783
-786
-792
-797
-798
-804
-809
-812
-816
-821
-825
-827
-832
-836
-841
-845
-847
-852
-856
-859
-863
-869
-872
-874
-880
-884
-889
-892
-896
-899
-903
-907
-910
-915
-917
-922
-925
-930
-935
-937
-942
-945
-949
-953
-956
-960
-963
-967
-970
-974
-978
-982
-986
-988
-992
-995
-999
-1004
-1006
-1009
-1015
-1016
-1020
-1025
-1027
-1031
-1034
-1037
-1042
-1044
-1046
-1052
-1054
-1058
-1062
-1064
-1067
-1069
-1073
-1076
-1080
-1084
-1087
-1089
-1094
-1097
-1101
-1101
-1106
-1109
-1112
-1116
-1117
-1123
-1126
-1128
-1131
-1136
-1138
-1141
-1144
-1148
-1151
-1154
-1157
-1158
-1163
-1166
-1167
-1173
-1176
-1178
-1180
-1184
-1185
-1189
-1193
-1195
-1199
-1199
-1204
-1207
-1210
-1213
-1216
-1220
-1220
-1224
-1226
-1230
-1233
-1233
-1237
-1240
-1245
-1247
-1249
-1252
-1255
-1258
-1260
-1262
-1265
-1269
-1271
-1275
-1275
-1278
-1282
-1285
-1287
-1288
-1290
-1295
-1295
-1298
-1303
-1304
-1308
-1310
-1313
-1314
-1317
-1319
-1322
-1324
-1325
-1329
-1330
-1334
-1337
-1339
-1343
-1344
-1346
-1347
-1352
-1354
-1355
-1358
-1361
-1362
-1364
-1367
-1370
-1371
-1375
-1377
-1378
-1380
-1383
-1386
-1387
-1391
-1392
-1394
-1397
-1399
-1398
-1403
-1408
-1408
-1412
-1412
-1415
-1416
-1419
-1419
-1423
-1426
-1428
-1428
-1432
-1433
-1433
-1438
-1438
-1442
-1444
-1446
-1448
-1450
-1452
-1453
-1455
-1458
-1459
-1462
-1464
-1466
-1469
-1469
-1473
-1474
-1475
-1478
-1479
-1483
-1485
-1486
-1488
-1487
-1491
-1496
-1495
-1497
-1500
-1499
-1503
-1505
-1507
-1509
-1510
-1513
-1515
-1518
-1518
-1521
-1522
-1523
-1525
-1526
-1528
-1529
-1531
-1534
-1536
-1538
-1538
-1540
-1541
-1543
-1547
-1546
-1549
-1551
-1552
-1554
-1555
-1556
-1558
-1562
-1562
-1562
-1566
-1566
-1569
-1571
-1571
-1572
-1574
-1578
-1577
-1579
-1582
-1581
-1584
-1584
-1587
-1589
-1589
-1591
-1591
-1593
-1595
-1597
-1597
-1600
-1599
-1603
-1605
-1605
-1607
-1609
-1610
-1612
-1613
-1615
-1616
-1617
-1620
-1620
-1622
-1623
-1625
-1626
-1626
-1628
-1631
-1631
-1633
-1634
-1634
-1636
-1637
-1637
-1638
-1641€
-1641
-1641
-1646
-1646
-1647
-1649
-1650
-1650
-1650
-1652
-1654
-1655
-1655
-1658
-1660
-1662
-1661
-1662
-1664
-1665
-1667
-1668
-1668
-1669
-1670
-1670
-1673
-1674
-1674
-1678
-1678
-1680
-1680
-1682
-1683
-1683
-1686
-1685
-1686
-1688
-1687
-1689
-1690
-1691
-1692
-1694
-1694
-1697
-1696
-1697
-1699
-1701
-1701
-1702
-1703
-1704
-1705
-1705
-1706
-1708
-1708
-1710
-1711
-1711
-1711
-1713
-1715
-1716
-1716
-1717
-1718
-1718
-1720
-1721
-1722
-1725
-1723
-1725
-1727
-1726
-1729
-1729
-1730
-1731
-1731
-1729
-1732
-1733
-1734
-1735
-1737
-1736
-1735
-1739
-1738
-1738
-1739
-1741
-1742
-1742
-1744
-1744
-1744
-1746
-1745
-1746
-1748
-1748
-1750
-1751
-1751
-1752
-1752
-1751
-1754
-1754
-1755
-1755
-1755
-1756
-1757
-1757
-1758
-1760
-1760
-1761
-1762
-1761
-1762
-1762
-1761
-1763
-1766
-1765
-1766
-1767
-1768
-1768
-1769
-1770
-1770
-1769
-1770
-1771
-1772
-1772
-1773
-1773
-1775
-1776
-1774
-1776
-1777
-1776
-1777
-1778
-1780
-1780
-1781
-1779
-1781
-1781
-1781
-1783
-1782
-1783
-1783
-1784
-1784
-1786
-1786
-1786
-1786
-1788
-1788
-1788
-1788
-1790
-1790
-1791
-1791
-1792
-1791
-1792
-1791
-1792
-1792
-1794
-1791
-1794
-1795
-1797€
-1796
-1796
-1796
-1796
-1798
-1796
-1797
-1797
-1798
-1798
-1799
-1800
-1801
-1802
-1799
-1800
-1801
-1801
-1801
-1802
-1804
-1803
-1804
-1804
-1804
-1805
-1806
-1805
-1804
-1805
-1806
-1807
-1806
-1807
-1806
-1807
-1807
-1808
-1807
-1807
-1807
-1808
-1808
-1808
-1809
-1810
-1810
-1810
-1810
-1810
-1809
-1810
-1810
-1810
-1810
-1810
-1811
-1812
-1812
-1812
-1811
-1812
-1812
-1812
-1815
-1815
-1813
-1814
-1812
-1813
-1813
-1814
-1816
-1814
-1815
-1814
-1815
-1815
-1814
-1816
-1816
-1814
-1816
-1816
-1816
-1816
-1815
-1815
-1815
-1815
-1815
-1815
-1815
-1816
-1816
-1816
-1817
-1816
-1817
-1816
-1816
-1816
-1817
-1817
-1818
-1817
-1815
-1818
-1816
-1817
-1817
-1817
-1816
-1815
-1816
-1818
-1816
-1817
-1818
-1817
-1817
-1817
-1817
-1819
-1819
-1817
-1819
-1817
-1819
-1817
-1818
-1818
-1817
-1817
-1817
-1817
-1817
-1817
-1816
-1816
-1816
-1818
-1816
-1815
-1816
-1816
-1817
-1816
-1816
-1816
-1815
-1815
-1816
-1816
-1816
-1814
-1815
-1815
-1816
-1817
-1816
-1815
-1816
-1815
-1815
-1813
-1815
-1813
-1813
-1815
-1814
-1813
-1814
-1813
-1813
-1813
-1814
-1814
-1813
-1812
-1813
-1813
-1813
-1812
-1811
-1813
-1812
-1813
-1811
-1811
-1811
-1810€
-1812
-1810
-1811
-1810
-1810
-1810
-1809
-1808
-1810
-1808
-1807
-1808
-1809
-1808
-1809
-1807
-1808
-1807
-1806
-1807
-1807
-1808
-1808
-1805
-1805
-1808
-1806
-1806
-1806
-1805
-1804
-1804
-1802
-1803
-1803
-1802
-1803
-1803
-1802
-1803
-1802
-1802
-1801
-1801
-1802
-1800
-1801
-1801
-1798
-1801
-1799
-1799
-1800
-1799
-1799
-1798
-1799
-1799
-1799
-1797
-1797
-1797
-1797
-1795
-1796
-1796
-1796
-1796
-1794
-1795
-1795
-1794
-1795
-1793
-1793
-1793
-1792
-1793
-1792
-1792
-1791
-1791
-1792
-1790
-1790
-1789
-1789
-1789
-1789
-1788
-1788
-1785
-1787
-1788
-1787
-1787
-1785
-1786
-1785
-1785
-1782
-1784
-1784
-1783
-1783
-1782
-1782
-1782
-1779
-1781
-1782
-1779
-1778
-1777
-1778
-1779
-1777
-1775
-1776
-1776
-1776
-1776
-1775
-1775
-1775
-1775
-1775
-1774
-1773
-1772
-1773
-1771
-1770
-1771
-1770
-1771
-1770
-1767
-1769
-1767
-1767
-1768
-1767
-1766
-1765
-1765
-1765
-1764
-1762
-1764
-1763
-1762
-1762
-1762
-1761
-1759
-1759
-1760
-1758
-1758
-1759
-1759
-1757
-1756
-1755
-1755
-1756
-1756
-1756
-1753
-1756
-1752
-1753
-1753
-1751
-1752
-1751
-1749
-1749
-1750
-1750
-1751
-1748
-1749
-1748
-1746
-1748
-1746
-1745
-1744
-1744
-1743€
-1744
-1741
-1742
-1741
-1742
-1741
-1740
-1740
-1738
-1738
-1739
-1737
-1738
-1735
-1735
-1735
-1736
-1735
-1734
-1733
-1733
-1731
-1731
-1731
-1729
-1728
-1729
-1729
-1727
-1729
-1727
-1727
-1726
-1726
-1726
-1724
-1724
-1724
-1722
-1721
-1722
-1720
-1722
-1719
-1718
-1719
-1718
-1717
-1718
-1716
-1715
-1717
-1716
-1715
-1712
-1714
-1713
-1714
-1713
-1713
-1712
-1710
-1711
-1708
-1709
-1707
-1708
-1708
-1706
-1706
-1705
-1702
-1705
-1704
-1702
-1703
-1700
-1699
-1701
-1700
-1700
-1699
-1698
-1697
-1696
-1696
-1696
-1695
-1694
-1695
-1692
-1694
-1691
-1692
-1691
-1691
-1690
-1689
-1690
-1689
-1688
-1686
-1687
-1685
-1684
-1683
-1683
-1682
-1681
-1682
-1681
-1681
-1680
-1680
-1677
-1677
-1677
-1677
-1674
-1673
-1674
-1673
-1673
-1673
-1673
-1672
-1670
-1671
-1668
-1670
-1668
-1667
-1667
-1667
-1664
-1665
-1665
-1664
-1664
-1662
-1662
-1660
-1661
-1660
-1658
-1658
-1656
-1657
-1656
-1655
-1653
-1655
-1653
-1653
-1651
-1652
-1650
-1650
-1650
-1649
-1648
-1648
-1648
-1646
-1644
-1644
-1642
-1644
-1642
-1641
-1641
-1641
-1639
-1639
-1638
-1637
-1637
-1638
-1636
-1635
-1634
-1633
-1633
-1631
-1631
-1632
-1630
-1629
-1629
-1627
-1627
-1628€
-1626
-1626
-1624
-1624
-1624
-1622
-1621
-1621
-1621
-1620
-1619
-1621
-1618
-1617
-1617
-1614
-1616
-1614
-1613
-1613
-1613
-1612
-1609
-1610
-1609
-1607
-1609
-1607
-1607
-1608
-1608
-1604
-1603
-1602
-1602
-1603
-1602
-1599
-1599
-1600
-1599
-1598
-1596
-1595
-1597
-1595
-1592
-1592
-1593
-1591
-1590
-1590
-1589
-1590
-1589
-1587
-1585
-1584
-1585
-1586
-1585
-1584
-1582
-1583
-1581
-1581
-1579
-1578
-1577
-1576
-1575
-1576
-1575
-1573
-1573
-1573
-1573
-1571
-1570
-1571
-1568
-1568
-1569
-1567
-1567
-1565
-1564
-1565
-1565
-1562
-1562
-1561
-1561
-1560
-1560
-1559
-1559
-1559
-1557
-1557
-1555
-1554
-1554
-1554
-1552
-1552
-1552
-1550
-1549
-1549
-1549
-1547
-1547
-1544
-1545
-1546
-1544
-1543
-1542
-1541
-1540
-1541
-1540
-1539
-1537
-1536
-1535
-1535
-1533
-1534
-1533
-1532
-1531
-1532
-1529
-1530
-1531
-1528
-1529
-1528
-1526
-1525
-1525
-1523
-1523
-1524
-1522
-1522
-1518
-1520
-1518
-1517
-1516
-1515
-1514
-1513
-1513
-1512
-1510
-1511
-1510
-1510
-1508
-1509
-1509
-1506
-1505
-1506
-1507
-1505
-1503
-1503
-1501
-1503
-1499
-1499
-1499
-1497
-1496
-1499
-1496
-1495
-1493
-1494
-1491
-1492
-1492
-1491
-1490
-1489
-1488
-1488€
-1486
-1486
-1485
-1486
-1484
-1483
-1481
-1482
-1481
-1480
-1479
-1478
-1478
-1475
-1475
-1477
-1475
-1474
-1473
-1472
-1471
-1473
-1469
-1468
-1469
-1468
-1466
-1467
-1465
-1465
-1464
-1462
-1463
-1462
-1461
-1459
-1460
-1460
-1458
-1456
-1456
-1456
-1456
-1453
-1453
-1451
-1452
-1451
-1450
-1449
-1449
-1447
-1446
-1446
-1446
-1445
-1442
-1443
-1443
-1441
-1441
-1441
-1439
-1439
-1438
-1435
-1437
-1434
-1435
-1435
-1433
-1433
-1430
-1432
-1431
-1429
-1430
-1428
-1427
-1427
-1427
-1425
-1425
-1424
-1423
-1422
-1422
-1422
-1421
-1418
-1420
-1417
-1417
-1415
-1415
-1414
-1414
-1414
-1412
-1411
-1411
-1410
-1408
-1407
-1407
-1407
-1405
-1405
-1406
-1403
-1404
-1403
-1402
-1400
-1399
-1400
-1399
-1399
-1397
-1396
-1393
-1393
-1393
-1393
-1393
-1392
-1391
-1392
-1389
-1390
-1388
-1388
-1387
-1387
-1386
-1384
-1385
-1383
-1382
-1384
-1379
-1381
-1378
-1378
-1377
-1376
-1376
-1375
-1374
-1374
-1372
-1371
-1371
-1371
-1368
-1368
-1367
-1367
-1366
-1364
-1364
-1362
-1364
-1361
-1360
-1359
-1361
-1359
-1358
-1356
-1358
-1355
-1355
-1353
-1355
-1353
-1352
-1351
-1352
-1349
-1350
-1347
-1347
-1347
-1346
-1344
-1345
-1342
-1343
-1342
-1340
-1342€
-1338
-1338
-1341
-1337
-1337
-1338
-1335
-1335
-1332
-1334
-1332
-1332
-1330
-1330
-1328
-1329
-1329
-1328
-1327
-1326
-1325
-1324
-1323
-1323
-1320
-1321
-1320
-1318
-1319
-1317
-1316
-1316
-1317
-1316
-1314
-1313
-1312
-1311
-1310
-1308
-1308
-1309
-1306
-1308
-1306
-1303
-1303
-1305
-1303
-1303
-1300
-1302
-1298
-1299
-1298
-1298
-1297
-1296
-1294
-1294
-1294
-1293
-1291
-1290
-1291
-1289
-1287
-1288
-1287
-1285
-1287
-1285
-1283
-1283
-1282
-1281
-1282
-1281
-1280
-1279
-1277
-1276
-1276
-1276
-1276
-1273
-1273
-1273
-1270
-1271
-1271
-1268
-1268
-1270
-1267
-1267
-1266
-1265
-1265
-1262
-1261
-1261
-1261
-1258
-1259
-1259
-1257
-1257
-1256
-1255
-1253
-1253
-1254
-1251
-1251
-1251
-1249
-1251
-1247
-1247
-1247
-1244
-1246
-1245
-1243
-1244
-1242
-1241
-1240
-1240
-1240
-1236
-1239
-1237
-1236
-1237
-1235
-1233
-1233
-1232
-1234
-1231
-1229
-1228
-1229
-1226
-1227
-1226
-1224
-1225
-1225
-1223
-1222
-1221
-1220
-1220
-1220
-1218
-1218
-1216
-1216
-1217
-1216
-1214
-1214
-1213
-1213
-1210
-1211
-1209
-1209
-1209
-1206
-1207
-1206
-1204
-1204
-1203
-1204
-1203
-1203
-1199
-1200
-1198
-1197
-1196
-1196
-1195
-1196
-1195
-1192
-1193€
-1193
-1192
-1190
-1189
-1188
-1188
-1187
-1186
-1186
-1187
-1186
-1183
-1184
-1184
-1181
-1181
-1181
-1180
-1178
-1179
-1177
-1177
-1177
-1176
-1174
-1171
-1173
-1171
-1170
-1168
-1169
-1169
-1168
-1166
-1165
-1164
-1164
-1164
-1164
-1164
-1162
-1161
-1159
-1160
-1161
-1158
-1157
-1157
-1157
-1156
-1155
-1154
-1153
-1152
-1152
-1151
-1151
-1151
-1150
-1149
-1148
-1147
-1145
-1144
-1145
-1144
-1144
-1142
-1140
-1139
-1141
-1141
-1138
-1137
-1136
-1136
-1138
-1134
-1134
-1134
-1133
-1132
-1130
-1129
-1130
-1127
-1128
-1127
-1126
-1124
-1125
-1124
-1122
-1123
-1121
-1120
-1120
-1120
-1120
-1119
-1118
-1115
-1115
-1116
-1115
-1115
-1113
-1113
-1113
-1111
-1111
-1109
-1109
-1108
-1106
-1107
-1107
-1105
-1106
-1103
-1103
-1103
-1102
-1101
-1100
-1100
-1100
-1099
-1099
-1097
-1096
-1094
-1094
-1094
-1094
-1091
-1092
-1091
-1090
-1089
-1088
-1089
-1087
-1087
-1085
-1086
-1085
-1085
-1083
-1081
-1081
-1081
-1081
-1081
-1079
-1079
-1077
-1077
-1076
-1075
-1076
-1075
-1074
-1074
-1073
-1070
-1070
-1070
-1069
-1068
-1067
-1066
-1067
-1065
-1064
-1064
-1065
-1062
-1064
-1061
-1062
-1061
-1058
-1058
-1057
-1057
-1055
-1057
-1054
-1054
-1053
-1054€
-1051
-1053
-1051
-1050
-1049
-1048
-1046
-1047
-1048
-1046
-1046
-1043
-1041
-1041
-1040
-1041
-1041
-1038
-1038
-1038
-1039
-1036
-1036
-1036
-1034
-1034
-1031
-1033
-1032
-1031
-1031
-1027
-1029
-1028
-1027
-1027
-1025
-1026
-1024
-1024
-1025
-1022
-1022
-1021
-1021
-1021
-1019
-1020
-1018
-1017
-1017
-1015
-1015
-1016
-1014
-1013
-1013
-1010
-1011
-1010
-1009
-1009
-1008
-1008
-1007
-1007
-1006
-1005
-1004
-1003
-1001
-1002
-1001
-1000
-999
-999
-999
-997
-998
-997
-995
-995
-994
-994
-994
-992
-992
-992
-989
-989
-989
-987
-986
-987
-987
-986
-984
-984
-984
-983
-982
-982
-981
-981
-978
-979
-980
-977
-976
-977
-974
-974
-973
-974
-973
-971
-972
-969
-969
-968
-968
-967
-967
-967
-965
-965
-964
-964
-963
-961
-962
-961
-960
-961
-959
-958
-956
-955
-955
-955
-955
-953
-953
-953
-950
-952
-953
-950
-950
-950
-947
-946
-947
-946
-944
-946
-945
-943
-942
-941
-941
-940
-939
-939
-937
-937
-937
-937
-936
-935
-936
-934
-932
-932
-931
-931
-931
-928
-930
-929
-927
-926
-925
-925
-926
-924
-924
-924
-922
-922
-921
-920
-920
-919
-919
-919
-917
-917
-917
-917
-915
-916
-913
-912
-911
-913
-911
-911
-909
-910
-909
-909
-907
-907
-907
-905
-903
-904
-904
-903
-902
-902
-901
-899
-898
-899
-898
-899
-898
-898
-896
-895
-897
-895
-894
-893
-892
-892
-892
-890
-891
-889
-890
-888
-887
-888
-887
-884
-885
-884
-884
-884
-883
-882
-882
-881
-881
-880
-878
-878
-878
-878
-876
-876
-875
-874
-873
-871
-872
-871
-871
-872
-870
-870
-869
-868
-867
-866
-869
-865
-865
-864
-864
-863
-860
-862
-860
-861
-859
-860
-859
-858
-858
-855
-855
-856
-855
-854
-854
-854
-853
-853
-853
-850
-850
-849
-849
-849
-848
-847
-848
-847
-847
-844
-844
-843
-842
-842
-843
-841
-841
-841
-838
-838
-838
-837
-837
-835
-835
-835
-834
-833
-834
-833
-834
-832
-829
-831
-831
-829
-827
-827
-828
-826
-826
-827
-824
-823
-823
-824
-823
-820
-821
-820
-822
-820
-818
-819
-815
-817
-815
-814
-815
-814
-814
-813
-814
-809
-811
-811
-809
-810
-808
-808
-808
-807
-807
-805
-804
-805
-803
-802
-804
-803
-802
-800
-802
-799
-799
-799
-799
-798
-797
-796
-797
-796
-796
-794
-792
-792
-791
-791
-792
-790
-789
-788
-787
-788
-786
-786
-785
-784
-783
-782
-784
-782
-782
-781
-781
-781
-782
-779
-778
-778
-776
-778
-776
-778
-776
-776
-774
-773
-774
-774
-771
-773
-771
-770
-770
-770
-767
-768
-768
-768
-766
-765
-765
-764
-763
-765
-761
-763
-762
-761
-759
-760
-760
-759
-757
-757
-758
-756
-757
-757
-755
-754
-755
-753
-753
-754
-750
-751
-751
-749
-749
-748
-750
-748
-748
-747
-746
-748
-746
-744
-744
-744
-744
-743
-740
-741
-741
-741
-740
-740
-738
-738
-737
-737
-737
-737
-736
-736
-735
-734
-734
-733
-732
-731
-731
-730
-729
-729
-730
-729
-728
-728
-727
-726
-725
-725
-724
-725
-724
-723
-722
-723
-723
-721
-721
-720
-721
-719
-719
-719
-718
-717
-717
-716
-716
-714
-715
-715
-713
-713
-712
-711
-712
-710
-711
-710
-708
-708
-706
-708
-707
-706
-705
-705
-705
-703
-702
-702
-703
-701
-700
-700
-699
-700
-698
-698
-697
-698
-698
-697
-695
-696
-695
-694
-692
-694
-694
-692
-692
-691
-690
-689
-690
-689
-687
-687
-687
-687
-687
-686
-684
-683
-685
-685
-683
-683
-682
-680
-682
-681
-679
-680
-679
-677
-678
-678
-678
-675
-677
-675
-676
-674
-675
-671
-672
-673
-671
-669
-671
-671
-670
-668
-669
-668
-667
-667
-667
-665
-666
-666
-662
-665
-665
-663
-662
-663
-662
-661
-660
-660
-658
-658
-660
-659
-657
-657
-657
-656
-656
-657
-653
-653
-654
-653
-652
-652
-652
-652
-651
-651
-650
-647
-649
-649
-647
-647
-646
-646
-645
-646
-645
-643
-644
-646
-644
-644
-644
-642
-641
-641
-639
-639
-640
-640
-641
-638
-638
-638
-637
-637
-636
-635
-635
-633
-632
-632
-633
-632
-632
-632
-629
-629
-630
-628
-629
-628
-628
-628
-628
-628
-626
-626
-625
-625
-622
-621
-623
-622
-621
-622
-621
-621
-619
-619
-619
-618
-617
-617
-617
-618
-615
-615
-615
-614
-614
-613
-613
-614
-611
-611
-612
-611
-610
-610
-609
-609
-609
-609
-609
-608
-606
-606
-607
-607
-605
-606
-603
-605
-605
-603
-603
-602
-602
-602
-601
-600
-600
-597
-599
-596
-598
-599
-595
-596
-595
-596
-594
-593
-595
-592
-592
-592
-592
-590
-591
-592
-591
-590
-588
-588
-589
-588
-586
-588
-586
-587
-586
-584
-584
-584
-582
-584
-584
-583
-581
-582
-582
-581
-580
-580
-581
-581
-577
-578
-578
-577
-577
-577
-577
-576
-575
-577
-575
-574
-573
-573
-573
-573
-571
-572
-571
-570
-571
-571
-568
-569
-569
-568
-567
-566
-567
-567
-567
-563
-565
-564
-564
-562
-564
-564
-561
-561
-561
-561
-561
-560
-561
-559
-558
-559
-560
-557
-557
-557
-556
-554
-555
-556
-556
-554
-554
-554
-552
-552
-553
-552
-552
-551
-551
-550
-549
-548
-549
-550
-547
-547
-547
-546
-547
-544
-546
-545
-543
-543
-544
-543
-543
-542
-541
-542
-541
-541
-541
-540
-539
-538
-539
-539
-539
-537
-538
-538
-537
-536
-536
-535
-534
-534
-534
-532
-533
-533
-532
-531
-531
-530
-530
-530
-529
-529
-528
-528
-530
-528
-527
-527
-526
-525
-525
-524
-523
-523
-524
-522
-522
-521
-521
-522
-520
-521
-519
-519
-519
-518
-518
-517
-517
-517
-517
-517
-516
-514
-512
-515
-514
-514
-514
-513
-513
-512
-511
-512
-511
-511
-511
-508
-510
-509
-507
-509
-507
-507
-506
-507
-507
-507
-506
-505
-504
-504
-503
-502
-503
-504
-502
-502
-501
-501
-501
-500
-499
-500
-498
-498
-498
-497
-498
-497
-498
-496
-496
-493
-494
-493
-492
-494
-493
-493
-491
-492
-492
-490
-489
-491
-489
-490
-491
-490
-488
-489
-489
-489
-487
-486
-487
-486
-485
-484
-484
-485
-483
-482
-484
-485
-482
-482
-480
-480
-481
-480
-481
-480
-479
-479
-478
-478
-477
-476
-478
-475
-476
-474
-476
-475
-474
-474
-473
-475
-474
-473
-472
-471
-472
-471
-470
-470
-473
-469
-471
-469
-468
-469
-469
-467
-469
-467
-467
-467
-465
-466
-464
-465
-464
-464
-464
-465
-463
-462
-463
-462
-463
-461
-461
-461
-460
-460
-459
-459
-459
-458
-457
-458
-457
-456
-455
-456
-455
-453
-455
-455
-452
-452
-454
-453
-452
-452
-451
-453
-451
-449
-451
-449
-450
-448
-448
-448
-450
-448
-448
-448
-446
-446
-446
-445
-444
-445
-445
-443
-445
-443
-443
-443
-441
-442
-441
-441
-440
-440
-439
-438
-439
-438
-436
-437
-437
-436
-437
-435
-436
-438
-436
-435
-433
-434
-434
-433
-433
-431
-434
-433
-432
-433
-430
-431
-430
-431
-429
-429
-431
-428
-428
-429
-429
-428
-425
-427
-426
-426
-426
-425
-425
-424
-423
-426
-422
-423
-422
-423
-423
-422
-422
-420
-419
-422
-421
-420
-419
-419
-419
-417
-417
-417
-417
-416
-417
-417
-416
-416
-414
-414
-414
-416
-415
-414
-415
-413
-413
-411
-412
-411
-411
-410
-412
-412
-409
-408
-410
-409
-408
-408
-409
-408
-408
-407
-407
-407
-406
-407
-407
-405
-403
-404
-404
-404
-403
-403
-402
-404
-402
-402
-401
-400
-400
-400
-402
-401
-400
-399
-400
-399
-398
-398
-397
-396
-396
-397
-396
-396
-395
-395
-393
-394
-395
-393
-393
-394
-393
-393
-393
-392
-393
-391
-391
-392
-392
-391
-390
-390
-391
-390
-388
-387
-389
-386
-388
-387
-386
-386
-386
-387
-386
-385
-386
-384
-384
-384
-383
-383
-384
-383
-383
-383
-380
-382
-380
-379
-379
-380
-380
-380
-380
-379
-378
-378
-378
-377
-376
-377
-375
-376
-377
-376
-377
-374
-374
-373
-374
-373
-373
-372
-373
-372
-372
-372
-371
-371
-372
-371
-369
-371
-369
-369
-367
-368
-369
-369
-369
-369
-367
-367
-367
-367
-365
-366
-365
-365
-366
-366
-365
-364
-364
-363
-364
-363
-363
-362
-361
-362
-363
-362
-360
-362
-362
-361
-361
-361
-360
-361
-360
-360
-359
-359
-357
-358
-358
-357
-355
-355
-356
-355
-355
-354
-356
-353
-353
-354
-353
-353
-353
-353
-353
-350
-351
-351
-351
-350
-349
-352
-351
-350
-350
-349
-351
-348
-349
-347
-346
-348
-349
-348
-345
-345
-347
-346
-345
-345
-344
-344
-346
-345
-342
-344
-343
-343
-341
-342
-342
-340
-341
-341
-340
-341
-340
-341
-340
-340
-339
-339
-337
-339
-338
-338
-338
-336
-335
-336
-336
-335
-336
-335
-334
-333
-333
-334
-335
-335
-333
-332
-333
-333
-334
-332
-330
-332
-332
-332
-331
-330
-331
-330
-331
-329
-330
-328
-329
-328
-328
-328
-327
-328
-324
-324
-327
-326
-325
-324
-326
-324
-324
-324
-324
-324
-324
-323
-324
-323
-323
-322
-322
-321
-323
-320
-321
-319
-319
-320
-320
-320
-320
-318
-318
-319
-317
-320
-317
-315
-317
-317
-316
-316
-317
-315
-316
-315
-315
-316
-314
-315
-313
-313
-313
-313
-312
-311
-313
-312
-313
-312
-312
-312
-311
-309
-309
-309
-309
-309
-310
-308
-308
-307
-306
-308
-306
-306
-306
-306
-307
-305
-305
-305
-304
-303
-305
-304
-301
-302
-303
-303
-302
-303
-302
-300
-302
-302
-301
-303
-300
-301
-298
-298
-299
-300
-299
-299
-300
-297
-298
-298
-296
-298
-296
-296
-297
-296
-295
-296
-298
-294
-296
-295
-295
-295
-296
-293
-293
-292
-292
-293
-293
-292
-291
-290
-292
-291
-291
-292
-291
-291
-290
-290
-291
-290
-289
-289
-289
-288
-289
-288
-289
-288
-287
-285
-286
-286
-288
-286
-285
-286
-285
-284
-285
-284
-285
-284
-285
-284
-283
-283
-284
-283
-282
-280
-283
-282
-282
-281
-280
-280
-280
-279
-280
-279
-280
-279
-278
-278
-278
-279
-278
-277
-276
-277
-275
-277
-277
-277
-275
-275
-274
-276
-274
-277
-275
-274
-273
-274
-274
-274
-274
-273
-273
-271
-273
-272
-272
-273
-271
-272
-272
-271
-270
-270
-271
-269
-268
-268
-268
-268
-267
-269
-267
-268
-266
-266
-265
-267
-267
-266
-265
-264
-264
-264
-265
-265
-264
-264
-264
-264
-263
-263
-264
-262
-263
-262
-261
-261
-262
-261
-261
-261
-260
-260
-260
-260
-261
-260
-260
-259
-260
-259
-258
-258
-259
-256
-259
-257
-255
-256
-257
-257
-256
-255
-254
-254
-254
-255
-254
-254
-255
-253
-253
-253
-252
-254
-252
-254
-252
-252
-251
-251
-251
-251
-251
-251
-250
-250
-250
-249
-250
-251
-251
-249
-250
-248
-249
-247
-248
-248
-248
-247
-248
-247
-246
-248
-247
-246
-247
-246
-246
-245
-245
-245
-248
-246
-244
-245
-245
-245
-243
-244
-243
-241
-241
-243
-244
-242
-242
-241
-242
-240
-241
-241
-240
-239
-240
-240
-240
-239
-238
-239
-239
-240
-239
-239
-238
-238
-240
-237
-238
-236
-237
-237
-237
-237
-237
-235
-236
-236
-235
-235
-236
-235
-234
-235
-234
-235
-234
-234
-234
-232
-232
-232
-232
-233
-233
-233
-233
-231
-232
-232
-231
-231
-232
-231
-233
-229
-231
-226
-235
-222
-239
-212
-257
-177
-433
-1392
-1378
-1449
-1442
-1458
-1474
-1539
-1598
-1644
-1651
-1653
-1647
-1634
-1598
-1540
-1475
-1423
-1410
-1440
-1452
-1442
-1421
-1417
-1462
-1510
-1548
-1572
-1575
-1595
-1621
-1662
-1703
-1730
-1729
-1712
-1704
-1716
-1730
-1744
-1733
-1721
-1735
-1766
-1793
-1808
-1814
-1805
-1817
-1835
-1837
-1840
-1834
-1823
-1829
-1842
-1865
-1878
-1862
-1834
-1830
-1819
-1812
-1799
-1768
-1711
-1656
-1621
-1604
-1608
-1596
-1569
-1550
-1554
-1580
-1610
-1613
-1583
-1558
-1546
-1553
-1574
-1574
-1561
-1542
-1533
-1542
-1540
-1506
-1448
-1391
-1360
-1357
-1364
-1364
-1353
-1348
-1356
-1380
-1405
-1422
-1435
-1442
-1451
-1460
-1460
-1460
-1460
-1458
-1474
-1491
-1522
-1542
-1553
-1554
-1533
-1494
-1426
-1341
-1265
-1187
-1130
-1087
-1066
-1059
-1071
-1093
-1107
-1124
-1147
-1167
-1182
-1178
-1177
-1193
-1200
-1218
-1211
-1181
-1146
-1115
-1098
-1095
-1087
-1068
-1052
-1038
-1035
-1047
-1077
-1150
-1225
-1226
-1180
-1116
-1045
-984
-919
-874
-842
-830
-859
-895
-935
-968
-987
-1001
-1006
-993
-980
-972
-969
-945
-896
-852
-815
-815
-813
-807
-796
-797
-819
-853
-887
-891
-875
-845
-810
-786
-767
-753
-755
-767
-768
-758
-769
-789
-796
-805
-794
-782
-790
-799
-820
-829
-826
-817
-820
-835
-856
-883
-887
-898
-916
-942
-965
-952
-914
-872
-852
-862
-881
-892
-894
-887
-908
-952
-1012
-1084
-1140
-1205
-1284
-1367
-1454
-1518
-1563
-1595
-1615
-1619
-1608
-1590
-1575
-1551
-1533
-1501
-1449
-1378
-1299
-1224
-1169
-1135
-1100
-1071
-1054
-1044
-1055
-1062
-1059
-1049
-1023
-967
-911
-867
-835
-800
-762
-723
-695
-692
-694
-715
-763
-849
-947
-991
-956
-890
-824
-758
-704
-639
-568
-518
-493
-490
-476
-471
-488
-517
-547
-552
-532
-530
-535
-575
-613
-627
-646
-652
-674
-707
-734
-741
-754
-766
-773
-765
-758
-738
-713
-695
-684
-665
-649
-636
-637
-664
-673
-683
-699
-712
-728
-754
-765
-777
-788
-771
-739
-696
-656
-622
-585
-535
-490
-476
-477
-496
-515
-522
-533
-555
-586
-630
-671
-688
-705
-731
-754
-769
-748
-713
-688
-651
-620
-591
-545
-503
-456
-425
-407
-394
-393
-378
-366
-362
-371
-401
-431
-461
-484
-500
-516
-522
-523
-510
-489
-468
-432
-398
-359
-332
-342
-361
-374
-367
-352
-343
-343
-366
-371
-366
-367
-369
-364
-367
-375
-384
-398
-399
-377
-375
-383
-410
-455
-471
-462
-451
-450
-454
-470
-467
-454
-459
-458
-467
-477
-469
-459
-466
-482
-510
-516
-502
-472
-441
-433
-434
-440
-425
-394
-382
-381
-397
-418
-425
-421
-426
-434
-441
-429
-416
-392
-377
-363
-345
-324
-308
-293
-283
-287
-281
-265
-253
-237
-230
-223
-224
-227
-229
-227
-227
-226
-225
-224
-225
-213
-207
-227
-245
-276
-298
-301
-302
-311
-331
-352
-358
-346
-334
-320
-318
-317
-304
-278
-252
-228
-232
-245
-244
-241
-234
-245
-271
-306
-338
-346
-359
-374
-394
-419
-425
-418
-408
-402
-393
-375
-362
-349
-353
-368
-377
-387
-399
-420
-451
-495
-529
-549
-576
-597
-624
-655
-675
-688
-709
-719
-720
-731
-742
-758
-771
-768
-753
-754
-756
-769
-777
-754
-721
-698
-681
-665
-648
-609
-559
-507
-460
-433
-397
-339
-277
-218
-176
-157
-119
-72
-11
32
50
55
58
80
105
127
134
127
126
147
165
178
192
212
238
271
300
302
309
312
314
311
292
260
228
209
181
159
131
92
60
20
-33
-81
-116
-155
-199
-244
-293
-334
-359
-410
-463
-522
-588
-629
-664
-704
-753
-804
-854
-887
-907
-926
-946
-978
-1002
-1000
-986
-966
-962
-979
-976
-964
-937
-920
-920
-931
-944
-928
-911
-895
-894
-912
-927
-918
-906
-899
-897
-882
-861
-830
-796
-778
-756
-730
-698
-660
-631
-613
-596
-571
-543
-512
-488
-481
-467
-449
-444
-433
-419
-414
-412
-416
-414
-398
-366
-356
-358
-375
-407
-423
-429
-446
-479
-522
-574
-606
-621
-636
-638
-655
-662
-634
-587
-539
-503
-484
-459
-426
-375
-340
-324
-318
-319
-298
-262
-232
-210
-200
-190
-159
-123
-91
-60
-23
20
62
102
128
155
180
206
227
238
229
218
224
236
244
245
224
208
200
182
165
144
115
84
49
8
-25
-33
-59
-79
-99
-129
-132
-121
-119
-121
-135
-149
-141
-120
-102
-86
-80
-69
-35
1
32
43
28
21
20
36
43
25
-5
-41
-50
-40
-24
-8
-10
-9
14
40
67
85
108
135
160
180
183
182
191
195
199
201
192
186
196
209
224
246
256
272
295
313
329
351
366
366
365
366
375
400
408
398
383
355
340
335
326
304
272
238
218
211
197
179
142
103
85
74
59
28
-25
-73
-124
-158
-204
-262
-338
-419
-474
-518
-560
-609
-673
-732
-771
-810
-839
-876
-902
-927
-945
-957
-980
-996
-1009
-1019
-1029
-1039
-1055
-1066
-1065
-1049
-1033
-1016
-1006
-992
-966
-941
-911
-884
-868
-850
-831
-809
-767
-715
-690
-672
-669
-656
-621
-580
-551
-528
-508
-473
-419
-358
-289
-239
-201
-149
-77
5
78
119
142
169
196
229
240
243
242
252
282
315
351
375
394
425
463
497
531
546
572
593
621
630
636
644
656
671
683
689
684
675
680
684
690
684
666
657
645
640
643
626
603
574
551
536
536
520
483
439
387
359
352
335
313
285
251
236
246
255
256
239
222
227
247
269
277
257
246
242
255
263
251
234
211
216
226
235
236
218
209
220
225
230
230
234
241
254
258
253
254
258
267
271
257
226
201
193
186
185
171
147
126
112
94
91
84
65
39
12
-5
3
15
-1
-27
-67
-98
-115
-131
-160
-200
-245
-279
-289
-283
-276
-282
-294
-283
-254
-223
-192
-191
-188
-181
-159
-132
-124
-130
-146
-143
-124
-102
-81
-69
-62
-34
3
40
72
105
137
172
206
220
237
249
256
261
259
244
229
228
235
246
258
266
273
293
305
328
349
360
358
352
348
359
375
360
334
294
253
227
206
180
145
107
76
66
63
62
47
18
-8
-13
-13
-18
-52
-92
-125
-144
-145
-157
-173
-203
-213
-203
-178
-150
-138
-143
-130
-104
-82
-56
-36
-15
7
42
59
67
75
77
76
69
52
25
8
-1
-3
4
3
2
12
21
41
66
87
96
103
126
160
218
251
274
286
301
334
376
406
416
412
406
416
437
461
462
442
421
414
407
398
372
328
288
259
249
217
177
131
91
82
81
85
81
66
67
79
84
92
92
92
94
99
92
80
65
48
25
-6
-38
-82
-109
-124
-134
-147
-168
-185
-182
-161
-120
-77
-76
-115
-167
-211
-230
-239
-275
-319
-353
-375
-378
-375
-378
-397
-421
-438
-433
-422
-426
-458
-511
-562
-626
-750
-867
-934
-939
-885
-804
-735
-686
-652
-618
-570
-510
-448
-406
-393
-403
-404
-407
-400
-391
-382
-380
-363
-339
-329
-317
-317
-327
-329
-317
-316
-320
-319
-296
-254
-227
-212
-192
-164
-129
-92
-72
-77
-87
-86
-74
-33
5
15
12
1
9
33
62
84
81
70
83
122
184
235
254
281
338
412
495
548
562
548
565
611
645
663
662
652
675
703
716
718
694
683
694
706
715
721
714
701
694
688
691
695
686
675
653
615
579
566
561
565
555
527
473
404
355
357
414
446
398
287
168
91
62
15
-49
-117
-163
-159
-118
-85
-65
-65
-59
-33
-1
29
17
-24
-68
-97
-104
-101
-113
-137
-166
-168
-152
-132
-115
-103
-92
-73
-68
-79
-102
-129
-127
-107
-88
-63
-36
-16
14
62
111
161
200
242
285
325
351
392
444
487
518
524
515
489
460
430
402
372
324
265
219
203
225
236
235
214
177
154
153
158
149
126
100
80
57
35
8
-38
-81
-108
-121
-139
-178
-227
-268
-286
-306
-361
-456
-561
-642
-681
-702
-738
-783
-834
-856
-857
-848
-832
-803
-767
-715
-651
-600
-545
-492
-444
-386
-324
-269
-219
-177
-140
-95
-56
-21
7
36
71
122
176
216
240
263
283
320
346
344
325
303
299
311
340
361
352
313
295
285
286
273
232
182
160
152
141
116
69
29
17
23
14
-3
-34
-47
-39
-21
-13
-8
-11
2
19
27
26
27
32
37
58
67
74
85
94
102
100
76
53
37
32
27
6
-25
-57
-81
-98
-97
-94
-91
-96
-94
-92
-63
-36
-40
-63
-92
-102
-91
-82
-94
-122
-158
-160
-130
-83
-52
-39
-30
-4
43
102
139
158
159
172
199
214
217
195
183
178
172
167
149
124
127
146
167
185
198
208
217
230
226
221
212
195
174
158
137
122
113
108
109
103
97
90
91
94
119
135
138
142
146
152
177
190
181
145
92
56
54
66
67
55
45
77
157
279
427
576
749
950
1166
1374
1542
1686
1811
1930
2033
2087
2091
2053
2015
1996
1975
1932
1848
1723
1598
1471
1340
1191
1036
878
730
600
475
360
264
197
166
154
135
125
134
177
226
260
278
285
295
326
372
402
395
370
338
296
263
208
119
-16
-176
-351
-514
-677
-857
-1035
-1189
-1308
-1402
-1472
-1552
-1640
-1718
-1771
-1798
-1827
-1886
-1956
-2022
-2056
-2085
-2126
-2173
-2215
-2221
-2197
-2162
-2116
-2076
-2019
-1925
-1814
-1675
-1520
-1341
-1149
-935
-708
-468
-205
67
351
642
918
1185
1449
1704
1947
2166
2344
2482
2590
2671
2737
2784
2790
2759
2709
2645
2592
2536
2453
2343
2210
2081
1964
1860
1744
1607
1460
1325
1209
1116
1013
890
761
648
548
451
334
200
60
-71
-182
-307
-446
-605
-749
-870
-975
-1073
-1178
-1284
-1359
-1405
-1434
-1444
-1439
-1421
-1386
-1333
-1273
-1195
-1103
-1011
-917
-835
-777
-716
-630
-503
-348
-188
-29
120
274
431
594
747
871
971
1065
1155
1257
1333
1382
1398
1388
1376
1358
1333
1285
1209
1130
1069
1015
973
923
860
810
772
736
687
618
563
520
507
487
457
421
375
361
371
385
394
387
387
414
450
504
562
611
660
719
771
818
863
894
915
933
933
923
914
907
902
894
871
826
785
748
727
716
696
661
620
581
570
558
520
455
369
291
225
160
78
-23
-134
-221
-279
-313
-362
-429
-495
-536
-546
-541
-553
-577
-608
-623
-625
-633
-654
-686
-700
-686
-656
-622
-601
-589
-553
-515
-473
-431
-396
-368
-332
-295
-257
-213
-166
-119
-69
-33
-4
25
51
83
117
142
154
157
160
173
201
228
240
253
269
314
363
396
410
414
430
472
518
541
537
521
521
530
542
538
512
474
451
438
427
395
351
307
283
269
239
191
130
85
63
51
33
-6
-47
-69
-89
-101
-115
-138
-173
-200
-229
-266
-299
-333
-367
-396
-427
-463
-486
-508
-518
-524
-533
-558
-581
-599
-605
-596
-591
-602
-600
-590
-553
-505
-466
-447
-436
-409
-369
-320
-288
-281
-288
-287
-271
-244
-235
-242
-257
-261
-240
-219
-217
-218
-220
-203
-162
-135
-122
-127
-119
-87
-44
-2
9
9
18
25
42
54
59
50
43
40
34
33
36
42
55
66
70
87
110
142
173
205
227
249
267
293
329
353
358
364
370
397
435
453
448
444
445
468
493
503
495
481
484
497
521
525
504
476
462
462
472
460
438
414
409
413
409
397
369
347
352
362
377
375
356
355
364
378
397
413
415
412
411
403
395
378
356
335
316
295
275
261
259
259
262
255
251
251
263
285
304
307
307
310
332
359
370
357
325
309
307
315
311
280
236
204
190
192
183
148
113
97
98
114
108
93
70
61
74
80
73
56
48
64
85
101
90
66
57
43
36
30
17
1
-10
-10
-13
-7
0
7
25
35
44
55
75
96
111
129
137
135
135
143
157
157
141
129
122
136
148
145
122
95
86
97
111
89
13
-127
-288
-405
-440
-409
-353
-296
-240
-178
-118
-77
-46
-21
26
85
118
126
116
121
158
206
236
233
209
195
190
214
250
281
299
312
325
340
360
390
407
432
442
442
450
445
444
443
443
437
423
406
391
381
357
318
278
250
246
241
216
170
119
84
69
61
33
-20
-70
-97
-101
-83
-77
-81
-89
-92
-82
-70
-73
-84
-90
-71
-36
-17
-19
-43
-55
-48
-30
-12
-21
-42
-59
-72
-92
-116
-142
-154
-135
-104
-67
-28
14
55
99
127
144
164
178
197
205
201
181
159
148
146
151
149
136
126
124
144
167
176
160
137
120
112
113
110
99
86
86
115
151
177
176
167
167
188
205
193
171
128
98
76
49
13
-37
-70
-75
-63
-52
-70
-93
-109
-117
-105
-82
-66
-60
-47
-38
-37
-33
-20
-10
20
38
45
52
62
85
110
133
153
168
178
199
226
240
238
240
257
286
300
301
272
244
235
254
268
242
191
136
108
116
127
115
83
48
29
28
25
6
-19
-51
-61
-71
-93
-128
-162
-180
-183
-185
-198
-224
-237
-250
-260
-262
-260
-263
-253
-219
-186
-153
-119
-92
-59
-20
-3
-7
-29
-63
-85
-91
-87
-66
-36
16
90
167
223
272
331
411
506
600
675
712
750
797
855
898
889
842
794
771
792
850
903
909
887
867
868
894
923
890
758
558
299
-22
-403
-838
-1291
-1733
-2119
-2440
-2706
-2913
-3060
-3137
-3149
-3116
-3051
-2943
-2816
-2674
-2518
-2358
-2213
-2071
-1918
-1774
-1618
-1458
-1296
-1131
-975
-815
-651
-494
-323
-140
31
182
325
461
612
750
863
948
1015
1085
1170
1240
1280
1279
1267
1273
1294
1320
1314
1290
1265
1253
1247
1230
1186
1126
1069
1030
994
953
899
840
801
775
756
720
661
601
538
489
433
370
287
209
135
58
0
-55
-95
-130
-154
-183
-201
-208
-202
-179
-153
-126
-91
-58
-3
56
115
146
174
198
231
266
282
279
268
268
281
303
311
282
238
198
176
175
172
158
138
142
177
221
262
284
303
338
383
432
453
453
459
478
511
547
563
565
557
556
569
586
603
617
642
673
702
736
759
779
791
778
747
707
648
575
483
355
206
47
-100
-223
-330
-432
-525
-594
-633
-639
-641
-643
-648
-632
-601
-548
-493
-454
-433
-411
-370
-303
-248
-215
-202
-183
-151
-108
-71
-54
-55
-47
-23
0
3
-13
-34
-43
-38
-34
-52
-82
-105
-118
-117
-109
-100
-99
-93
-85
-73
-52
-33
-14
7
20
18
21
23
23
30
26
19
9
-3
2
9
6
-17
-48
-84
-178
-307
-377
-385
-327
-243
-158
-70
12
86
148
198
256
313
342
331
297
275
287
310
331
328
326
344
369
388
383
379
383
399
421
426
413
404
394
379
363
345
310
279
261
259
273
292
307
332
351
359
373
383
393
402
402
384
356
332
330
346
352
344
336
336
358
382
392
374
353
359
389
429
449
437
416
407
424
448
442
417
390
389
403
416
418
402
386
388
388
373
333
296
276
268
261
237
202
185
175
194
230
263
276
287
292
287
279
258
235
210
184
133
93
70
53
44
29
-1
-30
-62
-76
-83
-101
-137
-167
-192
-200
-207
-224
-257
-293
-308
-307
-284
-281
-300
-315
-328
-310
-299
-313
-342
-355
-317
-242
-192
-177
-202
-236
-256
-273
-297
-321
-312
-274
-208
-139
-98
-84
-70
-54
-21
15
49
67
79
84
86
90
93
95
108
122
123
123
122
125
140
152
154
157
159
172
173
149
121
122
164
216
248
265
266
283
321
377
422
422
393
360
339
348
347
333
309
292
288
293
284
268
236
221
222
219
197
162
131
119
126
126
103
81
69
69
91
112
125
130
136
149
169
187
195
199
205
195
182
170
148
126
92
18
-71
-123
-120
-72
-18
17
50
98
167
214
217
175
116
67
39
30
11
-21
-40
-36
-1
40
55
42
12
-7
2
31
63
86
113
152
200
230
228
218
202
192
188
159
117
89
73
83
108
131
142
153
158
163
163
155
138
124
108
89
74
62
55
50
41
25
4
-14
-23
-34
-41
-47
-42
-11
38
86
120
134
151
180
221
254
254
229
210
206
231
242
229
208
198
212
239
257
275
275
292
330
357
358
351
349
352
360
356
315
265
217
182
166
169
172
170
174
184
207
233
254
274
291
300
309
319
320
303
264
205
147
88
51
35
20
5
-8
-9
12
23
21
-6
-32
-48
-46
-33
-46
-85
-125
-152
-145
-136
-144
-167
-194
-205
-204
-203
-203
-213
-206
-176
-138
-114
-111
-107
-97
-71
-51
-56
-80
-99
-112
-109
-99
-100
-113
-116
-121
-114
-108
-109
-110
-110
-117
-122
-124
-129
-125
-117
-122
-125
-127
-117
-98
-81
-75
-73
-66
-35
-5
18
19
11
17
43
84
103
93
72
62
81
115
131
131
122
134
167
206
235
250
264
297
332
347
333
312
297
296
307
293
264
247
233
244
271
298
313
336
364
398
443
482
514
543
564
575
585
593
596
600
593
579
557
541
539
531
507
479
448
440
442
431
404
361
329
313
319
314
276
225
180
163
163
149
120
78
52
47
44
33
12
-21
-25
-22
-21
-36
-57
-64
-52
-23
-10
-20
-22
-21
-3
30
62
79
94
114
136
169
196
213
229
241
247
256
263
272
280
284
282
279
280
290
298
294
285
270
277
296
304
304
280
260
258
274
282
260
218
181
169
180
184
166
131
102
91
81
60
29
-20
-48
-64
-87
-128
-179
-219
-240
-243
-250
-277
-295
-309
-304
-282
-259
-248
-234
-219
-204
-171
-148
-130
-111
-91
-79
-64
-48
-34
-19
-6
-6
-11
-14
-12
-15
-40
-96
-157
-190
-182
-165
-143
-142
-139
-118
-72
-26
-3
-7
-11
4
35
5
-78
-131
-90
26
141
195
196
162
141
132
121
95
75
70
83
97
99
78
60
53
53
65
79
82
68
61
60
70
78
69
51
48
38
33
20
-4
-26
-46
-76
-96
-100
-83
-55
-31
-22
-23
-19
7
32
43
40
37
48
85
126
143
133
114
111
144
185
201
200
191
210
241
273
294
286
281
293
310
315
307
295
278
282
299
284
253
227
199
197
198
188
169
149
131
128
131
142
151
164
164
162
160
152
150
142
119
93
73
52
33
14
-15
-46
-65
-53
-39
-28
-35
-48
-47
-28
8
30
23
8
3
22
58
79
81
71
79
103
132
152
152
154
182
225
253
236
200
163
137
127
108
79
65
62
78
107
126
120
118
112
115
130
143
150
156
153
143
137
128
118
112
98
73
52
28
20
10
-11
-37
-66
-76
-77
-80
-85
-113
-149
-160
-146
-137
-149
-181
-213
-221
-196
-185
-190
-212
-224
-218
-206
-197
-195
-204
-203
-191
-183
-190
-220
-243
-258
-262
-266
-294
-319
-344
-355
-354
-360
-379
-409
-434
-460
-472
-479
-490
-499
-508
-526
-538
-549
-557
-561
-563
-580
-594
-601
-595
-580
-567
-567
-564
-549
-510
-464
-420
-398
-387
-356
-309
-252
-213
-210
-209
-195
-143
-84
-46
-24
-4
35
89
141
183
211
237
276
321
346
348
346
357
385
419
427
416
414
410
422
437
448
442
432
418
411
407
397
381
370
353
336
322
308
298
293
285
266
250
241
239
241
231
212
195
194
209
212
203
171
149
150
165
177
167
139
122
125
157
180
188
186
198
225
263
288
306
314
330
360
389
387
376
372
380
405
420
404
389
376
375
389
401
394
378
360
341
330
313
285
252
221
191
169
154
147
149
159
160
161
167
178
194
196
176
152
133
131
117
93
49
4
-28
-34
-30
-48
-85
-122
-145
-133
-118
-119
-136
-155
-153
-136
-123
-120
-127
-129
-113
-95
-95
-111
-128
-136
-126
-107
-115
-130
-138
-142
-124
-100
-80
-73
-59
-45
-18
2
19
26
42
47
48
53
61
72
86
85
80
72
70
69
61
37
8
-27
-44
-54
-75
-109
-162
-201
-222
-222
-235
-271
-319
-352
-357
-341
-338
-348
-367
-370
-353
-330
-315
-312
-324
-313
-292
-279
-287
-295
-294
-280
-252
-236
-247
-250
-255
-243
-220
-196
-175
-158
-156
-162
-151
-134
-114
-96
-78
-74
-63
-49
-25
25
67
101
140
173
217
267
303
269
184
113
107
148
213
276
347
434
534
619
661
652
619
574
545
502
427
343
264
202
159
126
95
61
60
89
109
88
58
67
109
146
155
114
48
-14
-85
-140
-196
-249
-295
-332
-364
-386
-397
-406
-416
-412
-408
-408
-400
-397
-382
-352
-340
-331
-317
-305
-276
-236
-215
-218
-228
-205
-160
-121
-92
-88
-72
-31
28
73
82
81
81
98
127
121
83
32
13
25
61
91
112
114
125
153
181
196
209
225
247
282
312
327
340
349
394
438
458
484
471
471
485
509
521
500
470
462
442
415
396
378
378
369
349
330
305
297
283
266
258
275
300
362
403
447
477
487
500
518
532
525
500
465
435
418
413
388
338
292
258
238
215
198
185
159
151
147
133
101
69
37
19
24
14
-18
-37
-57
-60
-49
-44
-61
-81
-98
-107
-109
-112
-117
-120
-117
-115
-105
-98
-84
-63
-48
-38
-31
-19
5
31
54
63
71
88
129
164
184
178
172
184
213
250
258
241
220
214
241
258
243
185
112
85
115
169
216
239
254
286
327
351
345
326
310
305
301
266
220
182
153
148
148
139
121
107
101
104
111
113
110
110
105
96
89
80
70
65
44
23
-2
-22
-31
-41
-61
-86
-110
-108
-99
-100
-118
-152
-179
-188
-174
-173
-203
-238
-263
-264
-235
-216
-218
-228
-227
-208
-182
-170
-171
-186
-189
-176
-168
-186
-208
-221
-217
-192
-176
-180
-180
-179
-165
-134
-100
-81
-70
-61
-48
-26
-11
-5
-1
6
0
-5
-8
-18
-26
-40
-61
-81
-100
-104
-109
-123
-144
-169
-191
-190
-229
-344
-469
-520
-491
-413
-340
-301
-278
-239
-187
-108
-41
-6
9
16
32
57
80
101
117
137
179
223
255
263
278
295
325
360
372
369
366
367
387
407
417
404
394
384
381
384
375
354
340
327
312
306
303
307
317
319
320
320
319
330
338
333
313
289
282
281
271
247
198
154
130
125
116
75
18
-37
-72
-81
-96
-125
-159
-180
-192
-204
-234
-275
-326
-360
-368
-366
-377
-382
-374
-352
-314
-277
-269
-269
-271
-264
-241
-218
-207
-206
-202
-196
-180
-164
-156
-157
-164
-197
-228
-231
-198
-124
-46
12
64
113
173
238
291
322
334
340
365
381
378
356
322
302
300
306
293
257
213
181
178
195
194
179
152
141
155
168
170
164
145
146
155
150
117
82
54
42
43
36
6
-20
-47
-58
-59
-65
-90
-125
-159
-188
-212
-233
-240
-220
-161
-70
60
224
412
617
821
1020
1217
1410
1604
1788
1944
2068
2159
2233
2294
2304
2262
2148
1997
1825
1642
1444
1209
950
701
480
308
154
7
-131
-242
-315
-358
-393
-432
-479
-525
-556
-589
-648
-738
-831
-924
-1002
-1129
-1359
-1559
-1655
-1671
-1642
-1636
-1669
-1713
-1733
-1727
-1716
-1736
-1776
-1844
-1923
-2002
-2067
-2103
-2120
-2111
-2076
-2031
-1977
-1919
-1846
-1744
-1622
-1486
-1336
-1172
-976
-760
-546
-345
-174
-7
173
372
555
696
813
925
1052
1203
1332
1436
1529
1635
1768
1909
2040
2150
2241
2341
2440
2514
2540
2526
2492
2442
2381
2282
2133
1964
1780
1600
1432
1265
1087
902
722
559
413
277
149
29
-77
-183
-273
-349
-416
-468
-510
-553
-592
-624
-642
-649
-659
-687
-720
-758
-785
-831
-898
-999
-1130
-1304
-1482
-1599
-1664
-1702
-1735
-1768
-1766
-1742
-1716
-1687
-1657
-1593
-1509
-1419
-1323
-1243
-1148
-1022
-875
-734
-608
-481
-343
-185
-18
131
261
393
519
662
802
924
1020
1100
1168
1229
1278
1308
1319
1322
1311
1285
1253
1214
1171
1130
1076
1023
967
915
874
841
802
758
715
697
691
678
654
609
572
557
562
563
538
500
471
465
487
498
496
482
476
490
516
532
539
531
531
541
543
520
480
449
428
421
402
353
304
256
222
202
180
144
99
52
12
-17
-53
-90
-129
-158
-189
-219
-242
-261
-270
-278
-292
-301
-315
-317
-314
-319
-331
-346
-355
-334
-321
-316
-332
-357
-371
-357
-340
-347
-374
-410
-431
-413
-387
-382
-396
-409
-396
-366
-326
-281
-242
-213
-192
-191
-216
-267
-305
-315
-287
-235
-197
-163
-123
-84
-32
17
54
72
86
96
109
117
118
110
99
93
87
90
81
63
43
15
-16
-44
-63
-47
-18
11
33
61
112
166
205
230
225
214
215
231
239
209
158
101
64
56
41
21
-7
-19
-12
-13
-50
-97
-129
-120
-66
-9
17
23
23
32
51
61
29
-17
-62
-104
-123
-140
-167
-199
-226
-246
-249
-240
-235
-234
-225
-221
-212
-203
-190
-174
-157
-141
-126
-111
-92
-74
-62
-62
-65
-64
-44
-24
-17
-28
-51
-61
-56
-31
-28
-39
-55
-64
-41
-1
32
42
45
56
85
123
158
187
188
193
201
210
210
197
199
205
225
231
200
210
204
244
258
276
273
282
342
399
445
431
397
394
395
356
295
249
221
215
213
199
187
178
184
187
181
161
143
140
169
198
214
213
191
174
170
170
148
97
32
-29
-59
-71
-106
-155
-213
-260
-278
-293
-316
-343
-371
-377
-368
-360
-371
-382
-383
-366
-332
-314
-315
-313
-311
-288
-252
-223
-208
-195
-181
-163
-146
-137
-132
-128
-123
-131
-134
-135
-130
-117
-105
-97
-85
-71
-47
-20
0
10
13
24
53
75
85
69
51
49
74
97
97
74
45
37
64
86
86
57
-49
-196
-281
-284
-231
-176
-131
-81
-22
25
60
86
100
119
130
101
56
5
-41
-59
-66
-75
-97
-114
-126
-116
-110
-101
-99
-83
-65
-50
-28
-11
8
23
23
23
22
26
43
53
53
40
28
39
44
24
-30
-99
-123
-85
-8
50
57
30
-3
-10
8
13
14
14
38
87
136
170
193
200
221
249
260
243
211
184
166
163
139
88
44
2
-26
-42
-53
-86
-122
-159
-183
-201
-224
-250
-280
-300
-327
-351
-374
-391
-406
-422
-441
-462
-478
-476
-471
-470
-478
-485
-476
-445
-430
-423
-440
-455
-447
-420
-391
-386
-404
-418
-411
-370
-335
-313
-308
-297
-266
-224
-188
-164
-154
-133
-97
-64
-57
-65
-69
-67
-45
-26
-35
-47
-56
-47
-14
25
54
73
91
116
151
187
216
232
252
260
271
279
277
280
277
263
246
226
219
214
209
194
176
173
192
210
221
219
209
219
246
281
295
283
270
272
310
345
363
357
350
364
386
405
410
396
381
387
392
377
339
303
270
258
248
204
158
117
84
80
85
80
69
60
55
66
74
80
79
80
79
77
77
72
71
63
48
33
21
25
35
43
43
35
36
60
77
85
72
44
29
35
47
35
-4
-53
-91
-89
-83
-86
-108
-133
-138
-130
-116
-111
-117
-120
-101
-76
-63
-72
-82
-78
-54
-22
-14
-18
-19
-14
17
58
91
109
133
153
188
226
255
277
302
323
338
359
378
408
429
416
383
338
306
285
279
272
272
282
321
367
392
396
380
370
378
398
398
367
324
289
288
304
303
287
254
232
224
218
208
181
152
147
154
158
140
118
106
114
137
148
142
147
161
195
242
287
317
354
399
459
518
559
581
592
603
610
638
686
777
934
1089
1180
1197
1199
1226
1275
1301
1220
1021
731
373
-33
-466
-939
-1404
-1813
-2154
-2438
-2692
-2910
-3084
-3175
-3177
-3134
-3068
-3006
-2932
-2840
-2735
-2633
-2520
-2400
-2243
-2048
-1844
-1647
-1457
-1249
-1022
-771
-530
-312
-103
100
309
525
728
900
1048
1178
1298
1406
1480
1528
1551
1557
1535
1510
1475
1432
1392
1340
1272
1198
1123
1051
980
902
810
721
648
605
559
509
441
377
335
319
305
260
196
120
60
34
-3
-52
-123
-182
-221
-244
-264
-293
-325
-347
-346
-337
-346
-371
-385
-387
-367
-345
-354
-364
-379
-377
-361
-341
-337
-343
-348
-349
-333
-322
-317
-318
-315
-314
-309
-300
-289
-270
-247
-234
-214
-187
-146
-98
-47
-11
17
55
116
171
216
234
235
246
281
324
340
334
319
316
345
380
403
403
397
411
436
460
477
477
477
498
519
523
506
485
472
475
482
461
427
396
367
360
358
349
324
296
269
259
250
238
225
220
220
204
175
131
78
32
-19
-57
-84
-108
-192
-343
-444
-450
-374
-254
-157
-86
-30
8
56
114
167
195
185
143
88
59
43
26
5
-28
-44
-43
-39
-44
-59
-85
-93
-87
-85
-100
-123
-129
-120
-94
-86
-114
-143
-178
-193
-185
-183
-201
-221
-238
-242
-227
-202
-186
-186
-197
-213
-221
-223
-218
-211
-210
-216
-220
-221
-213
-202
-186
-165
-154
-145
-139
-145
-156
-181
-198
-192
-159
-149
-203
-264
-276
-222
-117
-54
-50
-101
-146
-152
-134
-124
-150
-198
-234
-245
-258
-317
-420
-487
-535
-568
-477
-299
-146
-116
-237
-431
-620
-747
-824
-836
-797
-693
-558
-413
-269
-147
-42
38
104
146
172
191
190
172
135
96
60
21
-30
-78
-117
-121
-118
-117
-122
-144
-154
-140
-110
-92
-94
-106
-102
-65
-7
33
56
69
91
123
155
178
190
198
225
264
303
317
322
323
318
321
312
283
257
236
230
236
235
239
224
235
261
260
290
290
321
382
373
356
331
314
333
363
380
379
349
316
289
271
239
194
174
195
202
190
161
118
90
83
80
48
-13
-78
-131
-147
-168
-216
-273
-326
-351
-358
-377
-396
-424
-442
-432
-423
-422
-437
-452
-456
-441
-410
-403
-410
-408
-408
-388
-366
-359
-377
-395
-393
-360
-319
-266
-212
-162
-110
-62
-12
34
77
112
135
145
149
162
184
200
203
203
197
215
242
250
247
219
191
183
204
217
206
180
140
113
103
86
80
76
96
139
183
211
227
228
233
248
257
241
201
170
147
144
147
119
96
73
60
75
98
115
127
139
158
193
219
241
259
284
306
329
352
368
383
395
395
392
381
380
375
371
355
328
311
318
321
317
293
253
222
213
217
204
164
120
85
81
90
94
93
82
81
97
118
136
142
146
164
187
200
181
159
137
123
121
96
55
22
-14
-25
-24
-27
-42
-61
-79
-89
-96
-109
-126
-143
-159
-183
-208
-233
-258
-283
-313
-349
-378
-396
-394
-382
-370
-369
-370
-357
-321
-293
-267
-265
-264
-245
-205
-169
-160
-168
-182
-176
-143
-113
-103
-110
-116
-98
-65
-36
-14
-10
1
25
53
62
47
35
26
36
52
39
22
11
8
24
43
62
65
66
66
79
85
84
75
67
55
37
22
6
-3
-10
-26
-42
-53
-54
-40
-27
-25
-25
-21
9
41
64
68
60
62
86
123
143
139
125
116
140
181
204
205
193
191
203
214
220
215
200
206
224
232
217
194
178
178
194
188
162
146
126
125
133
141
132
118
104
103
104
100
91
80
76
66
61
55
53
56
52
45
41
40
51
63
69
65
60
73
105
123
128
109
96
98
123
147
142
115
86
77
92
101
94
64
42
41
42
42
29
2
-15
-15
-20
-46
-88
-123
-150
-157
-168
-208
-248
-289
-315
-318
-317
-332
-350
-367
-377
-375
-375
-380
-385
-388
-393
-394
-395
-397
-392
-384
-381
-375
-365
-342
-313
-286
-268
-255
-232
-186
-150
-130
-135
-148
-149
-124
-94
-87
-100
-115
-117
-84
-49
-29
-28
-27
-5
27
61
85
95
108
141
174
188
181
177
184
204
234
232
223
217
218
245
279
300
303
311
322
349
370
386
391
399
404
400
403
401
397
395
382
370
352
347
342
336
319
297
280
292
303
306
290
262
243
249
267
265
237
199
174
187
206
218
209
192
197
211
223
232
223
210
217
223
215
181
146
120
112
109
80
38
2
-31
-43
-46
-56
-79
-103
-127
-134
-144
-161
-182
-205
-235
-272
-307
-350
-389
-424
-471
-514
-555
-584
-600
-613
-633
-657
-675
-664
-647
-638
-639
-657
-665
-648
-613
-589
-586
-594
-597
-561
-506
-465
-441
-431
-405
-366
-333
-307
-298
-294
-274
-249
-234
-244
-258
-261
-250
-224
-216
-221
-221
-215
-184
-136
-95
-70
-42
-18
17
52
79
100
121
140
153
171
187
204
229
243
256
275
302
336
370
392
407
417
453
494
519
529
513
500
509
536
549
542
528
522
552
591
617
626
618
621
614
552
441
342
300
343
421
491
523
534
552
586
627
633
598
552
494
455
421
392
352
316
281
263
252
220
178
137
110
77
49
12
-29
-54
-83
-107
-140
-172
-199
-222
-247
-277
-313
-325
-329
-342
-366
-414
-462
-494
-505
-531
-580
-643
-705
-726
-718
-718
-725
-746
-751
-735
-710
-681
-665
-659
-630
-588
-549
-531
-520
-500
-463
-404
-361
-338
-309
-280
-228
-164
-105
-64
-26
10
59
115
160
197
229
269
297
330
359
389
423
447
467
483
510
542
573
595
605
616
647
683
707
715
698
685
692
719
726
708
675
636
638
652
654
640
607
597
598
601
607
592
569
572
575
569
533
493
458
437
433
398
349
300
254
239
233
219
189
159
134
121
107
87
55
21
-16
-55
-92
-136
-179
-216
-260
-304
-348
-380
-411
-440
-475
-518
-551
-558
-570
-588
-625
-675
-713
-727
-731
-757
-795
-843
-871
-855
-832
-807
-793
-781
-751
-707
-662
-622
-605
-585
-548
-502
-471
-464
-463
-464
-437
-406
-396
-391
-394
-382
-345
-301
-267
-249
-226
-201
-159
-120
-84
-59
-31
-17
2
21
36
56
68
72
81
92
112
127
138
140
137
156
188
208
217
201
181
174
190
194
176
136
88
67
73
73
62
29
4
-3
-1
-1
-15
-51
-68
-71
-79
-104
-142
-176
-195
-188
-198
-221
-244
-266
-256
-231
-204
-201
-200
-193
-175
-151
-125
-113
-100
-91
-90
-80
-79
-74
-69
-76
-80
-85
-83
-79
-83
-108
-137
-141
-108
-72
-47
-43
-64
-82
-71
-49
-55
-81
-125
-160
-167
-175
-190
-225
-264
-279
-278
-279
-275
-285
-283
-255
-222
-199
-188
-174
-154
-110
-68
-46
-31
-26
1
43
90
122
140
152
177
205
232
252
266
283
291
309
322
336
353
367
390
422
475
548
631
709
774
817
842
820
762
668
545
432
336
265
180
93
5
-62
-70
-59
-34
-19
-2
32
87
142
194
221
246
293
340
370
373
371
366
379
391
370
338
296
268
260
258
243
218
191
177
173
175
170
159
151
137
132
122
114
109
98
81
71
63
56
43
20
-10
-38
-38
-44
-63
-92
-138
-173
-185
-185
-204
-243
-287
-329
-335
-333
-332
-348
-367
-370
-355
-332
-304
-294
-278
-237
-200
-171
-157
-143
-122
-83
-39
-15
5
16
46
89
144
183
209
228
256
288
316
335
344
349
344
346
345
338
333
315
299
287
284
283
272
251
229
208
217
215
201
174
135
108
107
114
99
66
21
-10
-9
-1
2
-12
-32
-43
-37
-31
-25
-42
-49
-44
-41
-47
-69
-90
-108
-111
-114
-138
-167
-203
-220
-219
-207
-209
-220
-229
-223
-209
-195
-183
-175
-169
-169
-161
-158
-160
-159
-169
-178
-177
-172
-166
-163
-175
-183
-179
-152
-135
-125
-137
-157
-158
-140
-112
-115
-132
-167
-185
-167
-151
-139
-147
-159
-164
-151
-134
-122
-131
-127
-104
-88
-84
-94
-104
-112
-105
-103
-107
-118
-127
-112
-81
-44
-30
-32
-38
-34
-25
-15
-19
-28
-40
-53
-62
-76
-89
-100
-120
-138
-149
-149
-155
-157
-167
-172
-155
-119
-101
-94
-111
-133
-140
-119
-103
-117
-140
-180
-191
-177
-164
-165
-187
-205
-205
-197
-183
-182
-201
-195
-184
-176
-179
-196
-203
-194
-173
-166
-165
-174
-172
-149
-113
-83
-71
-64
-55
-32
-9
16
20
30
31
30
39
31
21
10
-5
-17
-14
-13
-11
-19
-40
-53
-42
-27
-24
-35
-66
-88
-84
-59
-47
-56
-79
-105
-91
-70
-47
-44
-51
-54
-44
-26
-10
-16
-22
-10
0
2
-10
-21
-31
-26
-21
-32
-53
-82
-86
-73
-47
-35
-36
-36
-21
-2
20
43
54
63
69
84
87
90
93
79
75
77
96
112
126
134
137
158
205
239
264
265
251
257
291
326
333
317
284
273
285
297
303
285
269
265
270
285
292
273
274
281
280
271
249
235
233
242
237
221
190
168
167
184
196
193
178
165
167
167
166
147
132
110
88
63
20
-20
-72
-126
-163
-174
-177
-180
-187
-194
-182
-143
-112
-102
-110
-132
-148
-140
-118
-119
-141
-172
-203
-197
-180
-160
-159
-162
-154
-135
-108
-77
-69
-59
-33
-10
-4
-8
-8
-5
11
22
15
-6
-32
-39
-31
-18
-22
-35
-59
-66
-68
-58
-51
-52
-49
-42
-26
-21
-14
-16
-27
-36
-39
-37
-46
-59
-86
-112
-118
-112
-119
-137
-181
-232
-257
-257
-263
-286
-327
-374
-390
-387
-382
-387
-401
-413
-417
-409
-393
-394
-397
-380
-363
-347
-346
-346
-340
-314
-295
-291
-296
-312
-307
-286
-250
-228
-217
-210
-192
-166
-137
-116
-110
-113
-126
-127
-132
-148
-162
-189
-213
-228
-226
-230
-235
-253
-272
-267
-236
-217
-209
-217
-237
-239
-212
-189
-193
-218
-262
-282
-284
-282
-287
-311
-331
-340
-342
-336
-342
-356
-351
-344
-342
-351
-363
-375
-377
-368
-376
-394
-426
-442
-441
-424
-415
-417
-422
-415
-390
-361
-329
-299
-270
-247
-209
-168
-132
-91
-60
-29
10
67
119
165
203
230
278
354
422
483
523
550
582
647
713
749
764
753
749
771
793
807
802
788
780
780
783
784
764
762
770
777
765
737
703
668
642
597
539
456
374
316
281
264
246
256
304
405
538
697
865
1043
1219
1405
1586
1753
1906
2038
2148
2239
2324
2372
2384
2355
2280
2185
2103
1993
1843
1661
1439
1216
1015
822
617
422
243
105
33
9
20
14
-8
-18
-11
2
-7
-69
-138
-203
-273
-347
-441
-533
-622
-694
-767
-847
-939
-1023
-1085
-1126
-1159
-1205
-1257
-1314
-1357
-1394
-1428
-1461
-1501
-1536
-1555
-1568
-1594
-1623
-1669
-1707
-1734
-1742
-1736
-1715
-1678
-1647
-1600
-1513
-1415
-1310
-1208
-1117
-1026
-901
-761
-651
-554
-481
-394
-269
-141
-11
119
259
419
598
790
990
1173
1379
1587
1778
1945
2071
2160
2228
2280
2286
2256
2178
2087
1994
1901
1784
1637
1469
1293
1131
977
826
674
522
361
223
96
-27
-130
-250
-372
-485
-578
-676
-777
-894
-1024
-1143
-1235
-1330
-1434
-1554
-1688
-1802
-1878
-1943
-2025
-2102
-2189
-2239
-2244
-2226
-2187
-2142
-2078
-1986
-1867
-1730
-1588
-1448
-1277
-1103
-930
-770
-628
-487
-342
-197
-82
17
86
150
223
294
348
377
391
407
428
450
468
482
490
497
526
555
584
601
593
584
598
641
692
762
832
903
1005
1134
1253
1355
1425
1478
1540
1622
1688
1717
1724
1706
1708
1724
1735
1730
1711
1683
1670
1664
1652
1612
1545
1490
1400
1288
1156
1010
862
727
592
458
334
205
109
37
-4
-47
-90
-137
-164
-178
-192
-208
-234
-266
-308
-331
-363
-389
-420
-455
-484
-492
-478
-476
-471
-477
-483
-460
-415
-391
-379
-396
-428
-439
-422
-418
-438
-475
-522
-528
-508
-480
-483
-508
-545
-573
-589
-588
-594
-584
-543
-508
-468
-438
-413
-379
-327
-283
-247
-226
-204
-161
-108
-45
-5
32
62
101
149
196
238
273
301
335
375
408
438
454
460
468
497
524
542
543
532
522
543
574
585
584
558
533
537
559
552
527
479
428
413
398
379
343
302
263
240
227
219
188
169
137
85
23
-50
-119
-167
-192
-222
-245
-284
-319
-340
-348
-363
-399
-438
-480
-504
-522
-534
-549
-569
-590
-597
-602
-610
-612
-628
-646
-657
-648
-643
-643
-652
-668
-663
-622
-579
-545
-529
-527
-517
-468
-408
-374
-354
-361
-358
-333
-301
-276
-271
-265
-257
-241
-217
-200
-203
-181
-164
-150
-138
-137
-129
-105
-78
-61
-52
-62
-58
-38
2
25
37
45
59
87
124
167
203
222
212
202
190
174
164
150
145
157
187
204
209
199
181
183
208
219
219
194
158
141
154
157
130
87
14
-32
-55
-70
-86
-102
-105
-97
-81
-61
-57
-60
-38
-37
-49
-75
-105
-128
-130
-136
-156
-179
-213
-222
-212
-191
-186
-193
-200
-199
-190
-177
-167
-160
-162
-163
-150
-143
-133
-127
-134
-137
-122
-101
-87
-79
-87
-92
-63
-18
12
31
27
14
29
72
92
97
84
57
65
84
107
117
115
115
122
130
145
142
144
166
173
177
164
147
141
150
139
131
103
74
66
75
88
82
74
65
62
71
80
83
86
77
76
79
71
62
38
10
-9
-6
-2
4
-3
-18
-20
13
44
63
63
39
26
41
66
63
39
-10
-44
-53
-62
-80
-111
-144
-177
-191
-204
-219
-247
-247
-240
-239
-238
-244
-246
-227
-205
-197
-192
-206
-206
-192
-163
-153
-157
-163
-167
-156
-139
-122
-105
-91
-82
-54
-34
-10
5
8
7
26
54
75
84
81
76
98
137
163
178
162
142
145
176
193
185
165
134
128
136
146
141
130
119
119
131
144
138
140
160
163
159
145
132
140
164
177
188
191
199
222
256
287
299
308
316
329
342
357
362
364
351
348
349
348
347
327
306
295
306
310
309
294
274
277
313
342
362
358
340
338
371
410
416
403
378
374
384
395
386
364
342
338
348
362
360
359
374
381
386
373
349
321
309
307
305
297
277
263
261
262
243
214
185
161
134
126
114
99
71
37
4
-34
-71
-123
-183
-232
-250
-262
-281
-313
-351
-373
-361
-344
-326
-326
-350
-362
-352
-335
-341
-366
-411
-443
-462
-470
-479
-491
-505
-508
-493
-475
-476
-482
-468
-459
-453
-459
-480
-510
-528
-549
-578
-625
-677
-725
-758
-782
-813
-840
-858
-864
-875
-862
-844
-828
-820
-809
-795
-763
-732
-723
-722
-713
-665
-612
-570
-558
-568
-556
-501
-448
-395
-354
-324
-282
-227
-186
-165
-169
-207
-225
-227
-220
-219
-223
-229
-223
-214
-194
-195
-188
-166
-158
-151
-161
-173
-178
-174
-189
-282
-430
-502
-480
-399
-307
-245
-206
-170
-119
-47
28
85
124
134
139
133
135
133
115
86
81
96
112
125
121
104
116
146
170
191
182
168
170
194
209
203
173
149
154
173
190
206
221
241
266
298
323
348
420
510
604
699
775
842
916
985
1048
1109
1186
1318
1487
1647
1731
1754
1774
1839
1960
2062
2030
1854
1560
1202
829
430
21
-405
-801
-1135
-1382
-1582
-1742
-1874
-1983
-2036
-2023
-2003
-1988
-1990
-2013
-2009
-1966
-1908
-1850
-1793
-1737
-1658
-1562
-1448
-1330
-1193
-1043
-875
-686
-488
-310
-123
79
263
435
578
695
800
896
967
1008
1013
998
978
958
931
879
812
742
678
620
569
507
441
373
320
278
248
225
194
163
156
170
181
187
173
145
142
134
111
70
0
-72
-125
-168
-229
-301
-380
-447
-488
-510
-534
-562
-597
-627
-631
-602
-580
-562
-536
-511
-478
-456
-457
-467
-480
-499
-523
-563
-603
-634
-648
-646
-649
-655
-656
-639
-606
-556
-502
-453
-411
-357
-298
-237
-185
-157
-139
-113
-76
-44
-15
-4
0
24
58
84
101
93
82
101
135
146
141
123
111
120
145
166
177
186
202
229
267
285
299
326
345
368
384
383
387
396
401
406
385
363
356
358
380
390
385
380
380
393
418
439
446
438
434
434
435
433
412
377
352
344
337
327
309
289
294
312
320
329
318
299
305
332
339
336
317
301
302
321
325
323
256
120
38
46
114
187
248
274
288
302
313
329
338
330
309
257
200
154
123
113
97
62
25
-10
-36
-51
-67
-93
-125
-149
-158
-154
-148
-155
-178
-185
-178
-174
-170
-176
-189
-171
-147
-135
-131
-142
-142
-107
-46
-6
16
18
27
53
95
123
141
150
156
176
203
211
213
232
238
254
264
258
268
278
295
313
308
300
299
314
334
337
317
290
260
239
230
213
182
133
99
77
56
30
-10
-64
-94
-110
-129
-155
-193
-237
-251
-259
-277
-304
-352
-399
-422
-434
-467
-515
-582
-641
-674
-679
-687
-685
-684
-670
-640
-600
-571
-540
-495
-452
-403
-378
-378
-374
-361
-348
-341
-358
-366
-353
-317
-266
-230
-218
-204
-194
-163
-127
-102
-89
-97
-100
-93
-89
-91
-109
-136
-141
-134
-129
-127
-141
-149
-128
-107
-92
-94
-117
-134
-125
-105
-105
-118
-151
-168
-166
-159
-159
-168
-184
-194
-193
-186
-193
-189
-181
-181
-170
-172
-183
-188
-187
-188
-195
-221
-241
-247
-237
-221
-219
-228
-231
-226
-204
-175
-157
-148
-151
-148
-135
-125
-118
-127
-137
-126
-106
-95
-83
-91
-86
-52
-29
-9
-8
-22
-28
-14
4
2
-20
-51
-63
-57
-43
-37
-35
-35
-26
-3
18
17
33
44
50
53
44
28
19
15
7
-12
-46
-70
-85
-87
-87
-104
-122
-137
-142
-126
-104
-89
-79
-75
-55
-26
4
28
38
47
74
105
133
150
153
168
208
237
259
258
242
239
265
293
297
278
255
254
271
288
300
307
306
317
340
360
359
375
386
389
395
375
354
337
320
306
282
247
222
209
208
211
201
181
168
155
162
164
155
131
100
79
66
51
32
1
-28
-28
-27
-25
-29
-42
-25
12
39
66
69
70
92
132
161
174
164
152
156
170
182
188
184
180
187
205
211
216
233
242
261
274
273
279
289
303
319
318
313
318
336
360
373
375
375
374
389
410
422
424
414
404
409
412
400
374
339
325
310
301
276
237
211
216
214
215
196
157
140
144
151
142
116
80
56
54
46
34
12
-15
-32
-36
-48
-64
-61
-68
-70
-70
-86
-95
-95
-94
-93
-108
-127
-138
-133
-118
-113
-121
-132
-140
-138
-126
-118
-121
-136
-148
-148
-140
-140
-155
-174
-180
-175
-172
-179
-198
-217
-206
-199
-195
-213
-248
-273
-279
-286
-306
-343
-384
-413
-420
-427
-432
-438
-448
-440
-418
-404
-388
-350
-324
-294
-264
-257
-240
-223
-205
-189
-201
-213
-222
-209
-194
-189
-189
-193
-198
-182
-156
-137
-132
-136
-131
-109
-82
-68
-72
-77
-69
-47
-29
-14
-12
2
46
89
133
150
157
180
223
259
276
274
265
264
278
285
290
282
273
272
284
279
277
285
283
286
282
258
252
244
246
241
209
189
176
182
196
203
197
193
193
212
233
247
243
228
220
229
235
227
200
175
167
170
172
167
154
157
172
173
171
157
159
186
226
250
262
259
254
261
267
255
247
232
220
217
212
191
182
180
173
174
161
140
132
126
129
118
94
80
76
90
102
102
100
91
90
103
117
119
104
81
66
68
64
47
12
-10
-20
-19
-29
-46
-71
-65
-51
-36
-27
-45
-63
-59
-42
-41
-55
-82
-101
-97
-89
-88
-86
-89
-87
-67
-43
-36
-14
9
30
56
62
65
80
97
131
147
147
168
219
288
347
390
431
483
539
598
636
659
655
639
629
625
613
587
546
520
513
512
503
487
460
462
477
482
482
449
416
403
400
379
344
288
238
208
189
156
119
69
28
0
-20
-64
-103
-135
-181
-225
-287
-349
-386
-409
-422
-435
-463
-481
-483
-464
-443
-433
-434
-434
-431
-411
-388
-375
-377
-393
-402
-404
-404
-420
-448
-477
-487
-484
-491
-504
-528
-548
-538
-532
-538
-562
-607
-633
-630
-629
-644
-671
-705
-718
-707
-687
-675
-664
-651
-629
-591
-562
-546
-512
-480
-450
-421
-406
-399
-375
-352
-329
-317
-326
-322
-308
-281
-260
-256
-257
-257
-250
-232
-215
-205
-210
-215
-212
-202
-192
-191
-205
-212
-192
-173
-158
-152
-158
-144
-103
-75
-49
-48
-54
-38
1
32
44
40
33
47
73
95
111
118
123
138
161
175
180
200
209
223
241
234
236
252
269
292
298
293
303
325
360
387
392
393
396
405
430
450
458
454
447
451
462
465
459
441
431
444
456
461
452
437
442
467
481
485
464
430
425
439
430
413
369
329
319
318
316
308
287
273
272
285
287
290
309
317
337
344
336
340
343
351
357
339
323
314
320
340
348
345
342
342
357
382
398
402
389
380
379
382
374
350
316
297
294
282
264
228
195
201
207
205
190
157
133
140
154
156
142
114
105
113
131
138
140
135
139
154
172
171
184
197
203
212
198
180
173
161
148
125
81
44
22
16
7
-18
-45
-77
-100
-104
-111
-131
-164
-208
-243
-270
-302
-345
-401
-452
-479
-494
-514
-532
-556
-552
-516
-491
-468
-464
-464
-436
-393
-363
-349
-357
-365
-355
-336
-322
-313
-314
-314
-300
-278
-270
-259
-235
-222
-208
-199
-206
-206
-195
-185
-175
-190
-201
-204
-190
-170
-162
-163
-165
-164
-155
-136
-126
-130
-145
-156
-153
-147
-157
-180
-208
-220
-221
-219
-231
-255
-270
-249
-236
-227
-236
-262
-270
-250
-235
-231
-245
-267
-270
-254
-235
-222
-211
-205
-182
-145
-121
-101
-64
-34
-2
27
42
61
93
120
148
151
147
156
181
230
275
311
350
389
441
502
539
542
511
467
424
389
350
314
283
280
296
306
310
306
301
335
364
366
345
317
317
354
380
374
336
283
250
244
243
229
214
194
183
185
181
164
163
160
156
152
126
103
90
75
62
33
-1
-26
-33
-30
-36
-47
-60
-69
-65
-46
-28
-7
-22
-17
3
24
44
49
39
53
73
90
106
99
95
120
145
172
176
158
140
142
139
105
35
-82
-167
-185
-155
-98
-57
-29
-6
30
66
77
104
114
114
107
74
45
23
4
-3
-31
-60
-78
-82
-65
-53
-41
-30
-18
10
46
79
98
100
95
105
122
128
118
102
96
107
121
119
109
99
118
137
156
151
130
119
132
147
151
135
108
95
99
101
103
96
85
86
97
94
78
81
73
65
55
21
-5
-28
-51
-70
-116
-161
-200
-222
-232
-248
-273
-295
-314
-317
-306
-298
-302
-318
-326
-322
-315
-323
-348
-377
-393
-404
-415
-437
-470
-485
-475
-465
-452
-464
-479
-476
-451
-429
-421
-426
-431
-418
-389
-367
-346
-333
-314
-280
-238
-216
-184
-147
-123
-84
-63
-50
-28
-9
21
41
41
45
53
78
101
107
114
110
106
122
130
133
116
85
58
45
24
-8
-58
-97
-126
-144
-168
-199
-230
-229
-226
-219
-219
-242
-256
-247
-238
-238
-254
-276
-292
-290
-292
-299
-304
-321
-321
-312
-309
-308
-294
-286
-272
-259
-260
-246
-235
-210
-177
-164
-153
-125
-86
-37
4
31
57
84
123
172
209
233
240
252
285
305
316
309
302
306
321
326
321
315
323
347
364
367
349
327
327
333
329
314
294
285
297
305
305
305
308
314
332
343
351
370
378
391
402
395
392
388
392
394
379
365
355
360
375
384
388
394
397
420
449
466
466
449
436
447
451
442
413
390
375
368
348
319
286
270
261
249
224
179
138
113
88
49
1
-55
-114
-143
-178
-210
-236
-270
-287
-293
-302
-310
-312
-325
-331
-342
-363
-374
-388
-381
-374
-399
-443
-499
-530
-540
-547
-559
-573
-585
-575
-553
-538
-531
-543
-536
-509
-484
-473
-474
-472
-469
-461
-462
-472
-481
-475
-461
-441
-438
-440
-432
-407
-381
-366
-352
-345
-325
-280
-252
-214
-182
-157
-109
-60
-26
13
45
63
83
83
13
-109
-182
-151
-42
83
182
250
318
387
447
490
511
524
537
536
508
457
410
387
386
383
354
319
290
278
273
265
258
267
286
302
308
291
261
238
223
194
151
97
42
13
-9
-43
-68
-105
-133
-139
-148
-159
-156
-164
-167
-164
-165
-152
-140
-127
-119
-118
-108
-90
-62
-29
1
18
40
63
99
137
169
182
171
164
167
166
147
118
89
64
45
20
-9
-36
-47
-52
-54
-71
-91
-109
-112
-109
-116
-129
-150
-158
-152
-160
-161
-166
-178
-173
-160
-154
-135
-125
-123
-111
-115
-116
-116
-114
-111
-119
-125
-133
-128
-112
-97
-81
-71
-62
-31
13
51
80
81
87
110
132
152
155
155
159
169
180
180
181
195
207
230
232
222
208
143
35
-39
-40
7
57
110
137
171
214
246
274
283
264
237
203
168
146
117
105
99
95
96
79
56
33
8
-7
-24
-40
-58
-85
-91
-85
-92
-105
-149
-194
-209
-223
-241
-268
-291
-302
-318
-336
-354
-368
-367
-365
-354
-362
-379
-399
-407
-411
-429
-450
-477
-500
-504
-517
-525
-534
-546
-544
-536
-535
-516
-505
-500
-487
-491
-493
-492
-484
-471
-476
-478
-484
-479
-465
-456
-445
-440
-436
-411
-377
-348
-319
-318
-307
-274
-246
-228
-225
-222
-218
-212
-209
-213
-208
-194
-178
-156
-151
-142
-136
-119
-110
-107
-104
-112
-96
-75
-61
-41
-24
-5
29
56
92
132
156
187
208
225
246
268
299
309
315
322
331
348
368
382
403
415
440
482
518
546
549
534
542
551
552
535
512
481
458
426
390
360
335
309
291
257
213
175
140
116
77
42
-1
-40
-57
-94
-128
-168
-215
-253
-292
-333
-359
-393
-414
-417
-401
-351
-268
-140
13
169
345
524
711
897
1073
1243
1397
1537
1677
1794
1876
1914
1896
1868
1828
1755
1646
1511
1368
1229
1088
956
839
750
678
637
601
563
540
525
524
505
480
446
390
337
260
181
104
10
-88
-198
-325
-443
-558
-676
-803
-948
-1087
-1200
-1280
-1363
-1468
-1567
-1648
-1705
-1762
-1835
-1925
-2030
-2144
-2233
-2366
-2562
-2719
-2784
-2744
-2643
-2537
-2441
-2341
-2224
-2080
-1927
-1780
-1645
-1501
-1352
-1205
-1070
-956
-828
-694
-540
-387
-236
-81
71
258
450
644
847
1049
1257
1469
1665
1856
2020
2156
2263
2326
2368
2373
2363
2328
2249
2155
2051
1947
1843
1727
1613
1500
1387
1301
1227
1151
1060
933
796
693
647
635
625
605
590
576
557
535
505
448
367
266
134
-19
-201
-397
-615
-825
-1024
-1221
-1384
-1538
-1681
-1802
-1904
-1974
-2015
-2033
-2018
-1993
-1950
-1893
-1832
-1748
-1654
-1538
-1419
-1303
-1179
-1038
-882
-713
-551
-389
-235
-74
106
283
451
587
696
813
928
1037
1120
1180
1232
1273
1304
1324
1333
1347
1349
1346
1329
1299
1256
1216
1176
1118
1066
1007
947
912
868
829
794
758
740
731
725
733
727
726
718
697
689
671
668
653
618
587
559
545
533
511
486
450
427
424
416
403
362
310
278
251
231
191
150
105
66
28
-14
-47
-74
-122
-141
-189
-245
-271
-323
-364
-412
-462
-504
-534
-548
-562
-574
-588
-601
-599
-596
-583
-568
-565
-554
-549
-538
-517
-497
-464
-444
-427
-407
-380
-338
-301
-274
-257
-241
-193
-124
-81
-115
-244
-361
-398
-372
-316
-269
-227
-168
-77
33
152
272
378
462
533
568
592
611
625
631
616
599
556
526
504
468
444
415
389
380
378
391
401
393
379
342
310
276
243
210
156
101
65
57
67
79
83
82
76
87
109
133
153
138
107
69
22
-32
-95
-158
-203
-233
-253
-266
-259
-247
-241
-236
-253
-274
-302
-332
-369
-422
-472
-532
-578
-608
-651
-682
-719
-752
-773
-794
-803
-797
-780
-757
-752
-741
-730
-710
-673
-657
-651
-642
-636
-622
-600
-574
-546
-531
-517
-505
-483
-465
-476
-493
-491
-463
-437
-433
-440
-449
-452
-445
-426
-407
-399
-386
-342
-303
-264
-224
-175
-122
-90
-49
-29
-3
19
30
60
83
110
128
115
74
14
-48
-76
-100
-107
-123
-150
-196
-293
-389
-439
-439
-387
-295
-227
-200
-177
-166
-119
-68
-3
20
-6
-15
-6
17
12
-11
-32
-54
-77
-94
-92
-77
-54
-18
-2
14
26
51
66
68
76
73
98
134
158
179
177
177
189
204
228
229
215
197
161
135
109
90
82
52
26
5
-6
-13
-16
-27
-44
-66
-69
-53
-22
-1
-15
-21
-26
-22
-27
-41
-61
-78
-94
-116
-132
-133
-137
-139
-139
-151
-153
-152
-146
-152
-166
-177
-195
-186
-189
-193
-197
-212
-213
-216
-221
-215
-219
-223
-219
-219
-199
-186
-157
-129
-113
-94
-69
-35
6
47
88
119
157
213
263
308
331
330
342
364
387
395
395
394
395
396
398
407
424
439
455
468
462
464
455
448
418
381
341
297
276
245
210
184
149
129
111
101
101
104
103
86
60
36
6
-3
-17
-47
-76
-113
-144
-171
-202
-232
-260
-261
-248
-237
-237
-258
-292
-300
-289
-265
-263
-275
-282
-283
-272
-268
-249
-231
-208
-175
-169
-211
-295
-353
-345
-298
-232
-198
-195
-193
-200
-170
-131
-110
-102
-113
-110
-81
-65
-48
-61
-80
-84
-81
-59
-53
-56
-57
-41
-10
17
51
71
89
114
160
202
233
227
207
204
200
191
171
161
158
176
190
191
193
202
207
218
208
197
179
163
149
119
94
60
37
30
10
-1
-13
-21
-14
-7
5
16
-5
-15
-35
-40
-6
30
73
89
102
135
178
223
261
279
268
241
222
204
182
172
145
116
119
116
128
162
219
265
302
307
302
345
404
448
484
474
451
456
479
499
513
523
510
494
483
466
466
453
432
421
395
374
370
364
388
412
432
430
408
393
359
328
297
251
215
185
146
102
51
10
-12
-27
-38
-57
-94
-108
-113
-110
-125
-152
-174
-181
-189
-190
-184
-165
-156
-149
-159
-167
-174
-191
-210
-246
-277
-305
-335
-338
-352
-362
-375
-391
-388
-384
-384
-372
-365
-365
-379
-408
-428
-453
-469
-499
-549
-591
-626
-643
-644
-652
-679
-710
-729
-718
-694
-672
-668
-689
-698
-685
-665
-650
-642
-627
-607
-584
-557
-529
-486
-441
-392
-349
-322
-281
-248
-205
-165
-127
-82
-42
29
102
174
260
332
403
478
540
607
676
743
823
900
1005
1120
1201
1232
1189
1145
1143
1204
1283
1267
1133
898
593
270
-65
-427
-817
-1237
-1635
-1947
-2180
-2353
-2480
-2560
-2589
-2562
-2506
-2426
-2326
-2221
-2112
-1987
-1866
-1739
-1602
-1455
-1296
-1155
-1000
-851
-687
-495
-313
-127
56
232
423
615
795
979
1135
1283
1415
1522
1617
1691
1763
1812
1831
1845
1842
1842
1838
1820
1803
1777
1748
1738
1730
1713
1691
1646
1617
1611
1603
1587
1562
1536
1520
1496
1467
1431
1406
1378
1342
1291
1209
1120
1022
925
809
679
555
435
354
300
259
237
214
180
102
30
38
108
184
243
263
275
282
286
304
269
209
146
110
103
93
75
58
54
72
99
112
108
79
42
31
22
-10
-68
-133
-193
-248
-304
-367
-424
-461
-488
-497
-517
-541
-556
-560
-553
-560
-564
-573
-578
-560
-563
-564
-562
-570
-559
-551
-548
-530
-521
-523
-519
-526
-536
-547
-547
-552
-580
-600
-624
-637
-641
-645
-649
-651
-647
-614
-568
-520
-470
-448
-428
-408
-410
-447
-514
-585
-658
-726
-795
-855
-900
-923
-934
-932
-935
-935
-925
-904
-880
-858
-829
-800
-753
-694
-652
-607
-561
-516
-451
-384
-314
-223
-142
-63
-12
-3
-18
-42
-59
-74
-91
-79
-41
29
102
159
194
199
184
178
173
166
150
108
75
53
24
-16
-54
-81
-89
-88
-75
-50
14
99
163
187
158
110
78
74
79
70
63
42
36
36
2
-29
-64
-94
-108
-133
-150
-144
-143
-129
-122
-134
-152
-184
-197
-196
-186
-172
-162
-148
-133
-123
-105
-98
-87
-53
-13
19
35
24
29
46
60
59
51
46
48
60
69
75
91
121
152
189
207
222
238
266
293
303
310
307
321
343
339
346
347
352
371
379
382
374
337
308
283
252
218
145
61
-11
-69
-149
-243
-289
-269
-182
-81
-18
25
85
145
191
194
149
118
103
101
103
111
130
160
184
190
181
170
161
152
138
110
84
63
61
56
42
32
14
15
30
30
38
38
44
62
75
93
125
141
157
168
171
179
195
225
245
231
125
-19
-73
-20
99
207
282
344
414
481
542
565
553
553
546
536
510
463
432
409
394
373
340
280
205
165
166
184
196
182
169
172
198
223
214
181
141
111
102
76
32
-7
-51
-71
-88
-112
-146
-195
-242
-271
-311
-354
-408
-464
-516
-558
-579
-597
-612
-619
-619
-602
-573
-530
-490
-463
-455
-453
-444
-433
-410
-394
-393
-405
-426
-439
-443
-447
-451
-465
-476
-471
-463
-436
-404
-374
-337
-302
-267
-223
-184
-145
-113
-82
-56
-33
-20
-24
-30
-47
-72
-87
-116
-144
-181
-218
-248
-272
-298
-322
-339
-346
-348
-337
-321
-296
-259
-208
-147
-91
-35
14
69
131
186
232
262
277
282
284
296
308
301
281
262
242
218
196
170
144
115
92
77
65
56
53
60
71
82
96
112
131
148
170
198
219
235
244
252
260
272
277
283
291
294
289
275
267
252
239
217
215
157
167
149
134
131
110
91
86
70
66
70
55
67
56
60
62
49
53
50
48
51
43
52
49
55
61
65
66
64
73
70
69
69
63
62
55
54
47
44
43
40
41
45
54
68
80
93
111
126
146
158
170
179
183
187
192
201
198
173
62
-68
-96
-32
68
138
175
198
226
257
270
270
256
248
234
202
165
131
113
108
107
101
89
89
92
106
123
140
157
179
205
237
265
289
305
312
321
333
341
343
340
337
330
319
316
306
290
270
240
213
195
173
157
135
118
97
86
78
73
66
58
53
44
38
26
10
-8
-26
-46
-67
-88
-111
-135
-161
-176
-194
-209
-224
-239
-249
-253
-257
-255
-253
-250
-250
-245
-242
-235
-224
-221
-214
-208
-200
-194
-187
-177
-166
-155
-142
-130
-116
-96
-76
-56
-36
-15
3
20
39
59
78
99
110
125
135
141
146
147
149
146
145
145
142
144
142
138
133
131
132
127
118
107
90
74
58
42
27
11
-5
-13
-21
-27
-28
-33
-30
-29
-31
-37
-46
-58
-71
-85
-101
-123
-141
-162
-177
-193
-214
-235
-260
-273
-289
-306
-327
-350
-368
-387
-414
-441
-469
-499
-524
-554
-581
-610
-637
-662
-685
-707
-730
-756
-778
-799
-820
-839
-858
-872
-886
-897
-906
-910
-910
-910
-905
-901
-897
-892
-882
-873
-858
-838
-819
-793
-766
-738
-706
-668
-630
-588
-543
-499
-453
-403
-356
-310
-264
-226
-192
-155
-118
-92
-70
-55
-42
-31
-15
5
23
38
55
67
79
87
91
94
99
100
101
107
117
130
144
156
170
184
203
218
230
244
256
265
276
281
280
278
276
277
275
272
267
262
260
256
258
262
266
276
282
290
302
313
326
333
350
369
382
393
403
420
434
444
455
466
480
493
504
513
524
533
546
554
560
562
564
564
565
573
576
577
578
583
600
620
640
649
658
663
667
669
669
658
643
632
617
598
581
562
542
518
495
471
446
429
421
410
394
382
371
359
344
329
310
295
281
270
265
259
262
258
254
252
251
258
264
267
265
259
253
244
239
238
230
220
208
202
194
185
183
176
169
166
166
169
175
185
193
202
212
219
227
235
238
242
244
246
242
240
237
234
229
224
220
221
223
222
227
230
235
238
244
252
258
263
267
271
276
279
277
270
260
248
241
228
216
202
186
172
153
135
116
99
83
64
45
28
17
9
0
-9
-22
-33
-42
-49
-67
-83
-101
-114
-121
-127
-137
-146
-152
-156
-158
-161
-161
-161
-157
-150
-139
-131
-121
-111
-106
-98
-93
-90
-83
-80
-76
-76
-73
-74
-75
-80
-85
-88
-91
-95
-94
-96
-95
-91
-86
-80
-75
-66
-60
-56
-52
-51
-52
-57
-57
-54
-52
-48
-50
-55
-59
-68
-76
-83
-92
-104
-112
-120
-148
-188
-203
-183
-133
-88
-66
-62
-71
-88
-118
-164
-222
-289
-352
-412
-470
-524
-569
-605
-622
-633
-631
-618
-596
-569
-536
-499
-458
-410
-364
-315
-267
-217
-167
-122
-77
-36
1
32
65
91
116
135
155
175
193
212
230
246
259
272
277
279
281
284
288
291
299
308
322
341
365
394
418
442
463
484
504
518
528
532
529
521
507
488
468
448
425
401
375
351
330
309
287
267
247
229
213
197
183
173
164
156
150
146
145
139
135
133
125
123
117
108
101
94
83
73
59
46
32
19
2
-19
-39
-61
-80
-98
-118
-139
-160
-178
-194
-208
-218
-232
-243
-253
-263
-272
-275
-278
-281
-283
-287
-292
-295
-299
-305
-309
-313
-319
-323
-324
-327
-329
-326
-323
-316
-308
-302
-295
-294
-290
-290
-291
-293
-295
-298
-303
-306
-309
-309
-309
-310
-305
-295
-285
-271
-253
-228
-202
-177
-147
-119
-87
-57
-29
0
26
52
76
98
118
138
156
173
192
205
217
227
230
226
219
209
194
179
161
139
119
94
71
46
21
-2
-21
-36
-45
-50
-52
-54
-52
-51
-52
-51
-52
-57
-62
-67
-76
-86
-97
-106
-117
-128
-139
-150
-157
-166
-171
-175
-179
-183
-186
-188
-191
-192
-193
-196
-196
-197
-197
-196
-195
-193
-192
-189
-186
-180
-172
-165
-158
-149
-141
-131
-125
-118
-111
-106
-105
-106
-106
-109
-115
-122
-126
-130
-132
-130
-123
-117
-108
-102
-97
-95
-95
-102
-107
-115
-127
-139
-151
-162
-172
-178
-180
-179
-176
-176
-173
-170
-163
-158
-151
-145
-135
-130
-125
-115
-109
-98
-94
-86
-82
-78
-77
-74
-73
-69
-61
-53
-44
-35
-23
-15
-4
9
21
32
44
57
65
71
69
67
69
72
75
81
88
103
119
137
160
180
198
218
232
246
255
262
265
267
265
267
268
271
271
274
276
279
284
285
290
294
297
302
304
310
311
316
316
313
308
298
288
274
266
252
242
229
215
205
196
190
189
191
191
190
191
190
187
184
183
178
171
164
151
139
121
104
83
58
30
4
-19
-43
-61
-77
-90
-99
-108
-111
-114
-116
-117
-119
-119
-118
-119
-122
-124
-125
-126
-128
-128
-126
-123
-119
-113
-107
-96
-87
-78
-68
-59
-48
-36
-24
-11
2
14
29
46
58
70
81
89
98
97
93
86
72
57
36
15
-9
-29
-50
-62
-71
-77
-79
-79
-74
-67
-55
-42
-30
-18
-9
-4
-6
-12
-31
-52
-77
-111
-149
-188
-225
-258
-286
-309
-328
-340
-344
-344
-340
-329
-315
-298
-286
-270
-254
-243
-231
-221
-215
-208
-203
-198
-191
-184
-180
-172
-162
-153
-139
-121
-103
-85
-64
-49
-35
-23
-15
-6
-4
2
-2
-3
-1
5
11
24
37
52
69
87
102
116
129
137
143
146
148
151
149
145
141
132
123
116
106
97
88
76
66
55
46
36
23
10
-11
-28
-52
-77
-99
-121
-140
-156
-171
-189
-203
-213
-221
-228
-233
-232
-225
-213
-198
-180
-160
-138
-111
-87
-63
-45
-25
-10
2
10
16
15
11
9
6
5
0
0
3
6
11
17
22
29
36
43
52
56
62
67
67
70
70
71
73
72
69
63
57
47
38
24
9
-9
-29
-47
-67
-88
-105
-122
-137
-148
-156
-161
-163
-163
-161
-162
-163
-164
-163
-162
-163
-163
-160
-163
-165
-167
-168
-173
-177
-179
-182
-179
-180
-177
-173
-168
-162
-159
-151
-146
-145
-142
-147
-147
-147
-144
-146
-145
-147
-149
-153
-162
-174
-186
-201
-218
-231
-249
-263
-276
-286
-291
-292
-286
-275
-258
-236
-211
-179
-145
-108
-69
-28
12
56
96
134
166
196
221
245
266
284
300
315
326
339
350
364
378
389
401
414
425
435
446
453
456
456
458
460
464
465
469
473
473
476
478
479
473
468
460
451
440
431
424
413
407
401
398
397
394
385
374
366
354
344
333
319
305
291
277
262
245
225
211
194
182
168
152
139
122
106
93
84
71
63
57
50
45
41
35
29
25
18
12
5
-4
-14
-24
-34
-43
-47
-53
-57
-61
-63
-67
-72
-76
-84
-90
-98
-111
-122
-135
-149
-170
-187
-204
-223
-234
-243
-250
-250
-245
-243
-236
-230
-228
-227
-225
-228
-232
-236
-243
-248
-254
-257
-263
-269
-273
-276
-277
-277
-276
-277
-276
-275
-276
-280
-281
-289
-294
-299
-305
-309
-314
-318
-321
-321
-323
-323
-318
-311
-303
-293
-281
-271
-259
-248
-238
-230
-223
-219
-218
-215
-214
-214
-214
-212
-209
-205
-194
-187
-174
-161
-147
-135
-124
-115
-108
-98
-88
-78
-67
-53
-36
-20
0
17
34
49
62
75
86
93
98
100
97
91
84
77
67
57
46
30
15
-3
-24
-48
-64
-84
-101
-113
-124
-131
-134
-132
-130
-123
-120
-118
-116
-114
-120
-130
-138
-147
-156
-163
-166
-172
-174
-174
-174
-173
-168
-161
-152
-141
-129
-114
-96
-77
-59
-40
-21
-8
6
18
28
32
40
42
43
45
48
45
47
48
46
49
50
50
52
53
51
51
51
49
47
43
36
24
7
-15
-39
-62
-88
-112
-137
-158
-180
-206
-228
-252
-274
-292
-318
-340
-360
-381
-393
-405
-410
-420
-423
-415
-417
-403
-401
-386
-367
-353
-343
-320
-296
-287
-276
-265
-251
-233
-219
-207
-191
-177
-161
-141
-114
-89
-59
-31
-1
29
60
89
114
144
176
206
240
275
312
345
379
416
456
494
531
569
604
635
663
683
698
704
706
702
695
683
666
644
622
598
570
542
515
487
463
438
418
398
375
356
333
311
283
251
222
183
145
102
64
32
22
33
73
157
272
415
575
745
929
1109
1287
1458
1616
1755
1874
1970
2036
2070
2068
2033
1957
1844
1700
1524
1330
1128
921
722
531
354
195
60
-49
-135
-199
-247
-289
-322
-350
-373
-401
-429
-463
-499
-546
-603
-674
-746
-817
-884
-941
-990
-1032
-1063
-1082
-1104
-1125
-1152
-1183
-1214
-1250
-1283
-1323
-1369
-1420
-1480
-1555
-1639
-1721
-1795
-1856
-1897
-1925
-1938
-1943
-1931
-1900
-1853
-1796
-1719
-1616
-1496
-1354
-1199
-1034
-870
-713
-565
-421
-282
-146
-20
101
211
327
452
576
709
850
999
1160
1327
1498
1667
1832
1986
2123
2238
2318
2362
2361
2319
2240
2127
1984
1819
1631
1425
1205
974
739
510
289
72
-135
-325
-498
-653
-789
-907
-1004
-1076
-1134
-1178
-1208
-1229
-1242
-1254
-1263
-1279
-1335
-1410
-1448
-1420
-1345
-1281
-1256
-1271
-1289
-1282
-1246
-1198
-1153
-1112
-1072
-1028
-980
-931
-885
-835
-778
-713
-639
-558
-472
-391
-309
-222
-131
-40
54
153
253
352
449
539
625
708
790
872
951
1029
1105
1176
1244
1305
1363
1414
1463
1504
1537
1557
1571
1577
1579
1573
1563
1544
1521
1490
1452
1406
1361
1309
1253
1190
1126
1066
998
934
874
816
763
713
664
623
578
535
493
451
404
363
318
270
225
180
138
106
75
47
32
15
0
-16
-31
-48
-66
-85
-109
-131
-160
-189
-222
-260
-302
-348
-393
-439
-481
-522
-563
-596
-632
-665
-696
-728
-758
-788
-816
-845
-873
-898
-919
-938
-947
-956
-958
-950
-938
-918
-896
-866
-830
-792
-755
-720
-682
-646
-613
-576
-541
-508
-473
-441
-409
-376
-344
-307
-273
-238
-202
-164
-128
-89
-54
-16
22
58
95
122
149
179
201
218
236
248
253
261
259
249
235
217
193
167
140
113
82
53
24
-7
-37
-69
-97
-124
-148
-173
-191
-203
-214
-222
-223
-219
-210
-200
-181
-168
-148
-129
-112
-95
-78
-65
-58
-51
-51
-49
-50
-55
-63
-74
-89
-106
-124
-141
-162
-181
-201
-216
-232
-244
-252
-261
-269
-278
-283
-292
-298
-306
-313
-320
-323
-319
-319
-314
-306
-299
-287
-276
-261
-251
-243
-231
-222
-209
-179
-132
-83
-51
-45
-62
-97
-137
-172
-198
-208
-198
-171
-121
-71
-15
39
90
142
187
227
261
287
307
325
336
343
340
338
331
322
311
304
301
301
300
306
315
330
340
347
349
341
333
322
311
310
313
312
293
257
206
156
117
85
72
75
91
118
154
186
216
242
266
285
302
314
323
331
330
323
314
302
285
271
258
245
233
224
211
196
187
175
166
154
139
127
110
97
82
72
56
46
39
32
25
17
8
-4
-16
-35
-54
-70
-87
-105
-121
-139
-157
-173
-190
-201
-208
-214
-221
-219
-215
-209
-200
-191
-174
-160
-146
-131
-118
-112
-102
-97
-92
-87
-86
-86
-90
-90
-94
-96
-102
-108
-113
-120
-130
-143
-154
-170
-190
-204
-219
-227
-239
-254
-260
-267
-270
-273
-271
-260
-252
-236
-223
-200
-180
-157
-132
-104
-77
-52
-27
-2
25
52
74
101
119
140
163
186
206
228
252
272
292
309
323
334
339
342
339
332
320
304
287
272
257
243
226
209
190
167
148
128
103
82
59
31
6
-20
-50
-77
-105
-131
-155
-176
-195
-211
-227
-238
-248
-257
-268
-277
-284
-284
-284
-286
-285
-286
-285
-287
-289
-290
-290
-288
-280
-272
-268
-263
-261
-259
-255
-252
-245
-236
-226
-221
-214
-212
-207
-206
-207
-208
-208
-210
-214
-218
-222
-225
-232
-237
-241
-247
-255
-262
-269
-279
-288
-296
-302
-307
-310
-312
-310
-313
-318
-322
-323
-324
-327
-332
-341
-351
-356
-363
-366
-370
-373
-372
-366
-356
-346
-330
-317
-303
-292
-281
-271
-263
-253
-236
-220
-207
-195
-182
-170
-157
-149
-147
-146
-142
-134
-130
-124
-118
-110
-101
-92
-80
-68
-49
-27
-4
26
58
90
126
165
202
238
273
301
325
345
361
368
372
376
379
380
383
384
379
375
374
376
388
395
403
408
410
410
409
399
387
369
347
326
305
276
250
228
206
185
165
149
135
127
118
111
104
95
88
79
71
62
52
42
30
18
5
-7
-20
-31
-41
-51
-56
-58
-62
-57
-54
-49
-41
-33
-22
-12
1
11
18
25
27
26
27
27
29
30
32
38
46
52
58
64
68
74
73
71
70
67
63
58
50
40
27
11
-2
-19
-31
-48
-62
-73
-84
-89
-95
-96
-92
-86
-78
-67
-58
-46
-37
-26
-14
-6
5
15
20
24
27
29
32
36
32
33
33
33
32
29
27
24
26
28
28
32
35
38
39
45
48
51
56
66
81
98
119
144
175
214
263
322
392
475
561
639
701
755
802
851
912
993
1111
1262
1401
1487
1519
1530
1564
1644
1721
1703
1557
1313
1011
683
336
-35
-430
-811
-1142
-1404
-1603
-1754
-1872
-1953
-1996
-1998
-1971
-1928
-1885
-1845
-1810
-1764
-1700
-1622
-1535
-1431
-1322
-1204
-1075
-941
-795
-641
-474
-300
-117
72
257
438
619
784
934
1066
1175
1266
1333
1377
1405
1417
1418
1408
1390
1362
1326
1286
1248
1206
1166
1118
1069
1020
972
927
885
843
799
753
706
657
603
546
479
405
323
233
137
36
-73
-181
-289
-391
-489
-582
-666
-742
-811
-874
-924
-967
-1000
-1024
-1039
-1048
-1047
-1041
-1030
-1014
-997
-976
-956
-931
-909
-888
-869
-850
-836
-823
-811
-803
-789
-780
-773
-763
-755
-742
-726
-709
-686
-662
-636
-610
-578
-541
-510
-475
-440
-406
-371
-335
-303
-268
-235
-202
-164
-130
-94
-59
-22
16
55
89
123
158
188
219
252
287
322
353
386
414
448
481
512
547
576
607
638
663
688
709
729
742
753
761
761
760
752
739
725
708
687
665
639
613
584
556
523
490
459
429
397
368
339
310
281
254
226
199
174
149
122
92
64
33
8
-19
-44
-70
-93
-111
-126
-136
-143
-145
-146
-145
-146
-145
-139
-136
-130
-126
-120
-112
-106
-100
-91
-77
-58
-37
-15
14
41
67
92
116
140
163
182
203
227
248
270
290
311
329
346
364
379
392
402
409
411
411
408
398
384
371
360
354
341
325
313
302
290
279
267
251
240
231
218
204
194
183
171
161
146
135
125
115
102
89
78
69
59
50
41
29
18
5
-10
-24
-35
-47
-58
-63
-71
-77
-83
-91
-99
-110
-119
-124
-133
-140
-143
-148
-150
-158
-165
-172
-185
-198
-208
-224
-267
-329
-389
-412
-386
-331
-285
-263
-256
-247
-236
-228
-232
-241
-251
-267
-289
-311
-328
-339
-344
-347
-352
-353
-356
-353
-345
-338
-327
-311
-298
-285
-273
-259
-246
-232
-221
-216
-215
-215
-221
-231
-244
-260
-276
-293
-307
-318
-327
-332
-333
-332
-328
-318
-304
-288
-273
-265
-256
-250
-246
-243
-243
-244
-248
-251
-253
-254
-258
-258
-261
-261
-261
-261
-258
-257
-254
-250
-239
-227
-214
-195
-176
-155
-132
-111
-88
-65
-43
-21
0
15
29
39
51
61
68
74
81
85
94
96
102
104
105
109
109
110
110
110
108
108
105
98
93
84
76
66
56
49
42
34
33
31
35
39
48
59
71
90
109
131
155
181
208
230
250
263
272
282
286
286
285
280
275
266
255
243
231
218
204
195
182
167
149
126
107
84
63
46
25
9
-8
-28
-42
-55
-69
-79
-84
-85
-84
-78
-67
-55
-38
-19
1
25
50
76
102
129
156
182
208
232
255
276
291
307
319
330
343
351
357
365
372
382
392
401
406
407
405
400
396
388
376
360
345
328
309
292
275
255
234
215
199
182
165
153
145
136
127
118
107
103
94
86
81
73
67
65
63
63
64
68
72
79
87
96
108
118
132
144
156
165
177
186
195
204
205
210
209
206
206
203
197
185
175
161
146
129
110
94
79
64
55
46
41
36
33
31
27
22
16
5
-9
-26
-41
-54
-70
-80
-95
-107
-122
-136
-151
-162
-173
-189
-203
-216
-233
-251
-267
-289
-310
-330
-352
-374
-391
-406
-420
-430
-435
-436
-434
-428
-422
-413
-402
-391
-377
-364
-347
-330
-311
-292
-274
-254
-236
-216
-195
-175
-158
-144
-128
-116
-105
-95
-90
-88
-87
-87
-89
-95
-99
-106
-108
-109
-109
-110
-108
-102
-97
-89
-77
-64
-52
-38
-24
-16
-7
0
4
5
5
-1
-11
-22
-34
-42
-50
-55
-60
-67
-74
-83
-96
-113
-131
-155
-181
-205
-233
-262
-287
-309
-326
-342
-352
-359
-366
-366
-361
-353
-340
-322
-303
-279
-254
-227
-197
-170
-139
-108
-76
-47
-20
6
28
46
61
73
83
90
94
97
102
107
113
120
124
131
134
140
144
150
156
163
171
180
192
204
219
232
251
269
284
295
306
312
317
323
323
322
315
314
311
305
304
303
298
295
294
292
292
289
286
285
284
285
290
296
302
306
311
316
317
320
326
330
335
335
338
336
336
336
327
317
305
288
267
242
214
179
141
96
46
-2
-51
-100
-146
-194
-243
-289
-330
-375
-417
-451
-489
-518
-545
-571
-591
-606
-615
-622
-623
-618
-612
-604
-587
-565
-540
-512
-481
-446
-412
-378
-341
-304
-266
-233
-201
-170
-139
-108
-81
-56
-35
-12
10
25
45
61
73
83
87
89
81
72
56
41
26
7
-12
-27
-40
-52
-60
-67
-67
-67
-63
-58
-47
-39
-32
-24
-22
-17
-14
-13
-15
-17
-21
-28
-34
-38
-42
-44
-42
-37
-33
-29
-25
-19
-14
-6
3
13
28
43
61
75
86
96
101
103
103
101
95
87
77
68
57
50
46
42
41
42
45
46
46
45
43
41
40
40
39
41
48
55
64
78
94
110
127
144
163
180
193
208
218
222
220
216
213
207
199
191
179
173
163
154
144
131
120
102
93
83
71
61
49
38
30
23
11
3
-7
-16
-24
-28
-33
-39
-44
-49
-56
-60
-66
-72
-81
-89
-96
-101
-103
-106
-108
-107
-107
-105
-98
-93
-88
-78
-67
-58
-47
-35
-23
-12
-1
8
15
19
26
35
40
47
56
62
67
70
71
75
75
75
77
78
78
77
73
63
52
39
26
17
9
3
-6
-16
-26
-34
-38
-44
-48
-47
-48
-42
-35
-28
-17
-9
3
15
26
31
31
31
29
26
23
14
3
-12
-31
-50
-71
-89
-111
-135
-157
-176
-198
-218
-235
-259
-281
-300
-326
-350
-366
-379
-386
-390
-389
-393
-395
-398
-399
-394
-392
-389
-387
-380
-380
-376
-372
-370
-364
-359
-353
-348
-345
-341
-332
-323
-311
-300
-303
-317
-330
-318
-275
-218
-169
-141
-135
-137
-132
-117
-100
-91
-87
-86
-88
-87
-81
-79
-78
-67
-59
-40
-17
12
40
75
112
153
183
193
186
157
114
57
-19
-99
-175
-246
-317
-370
-400
-414
-434
-455
-466
-466
-450
-420
-392
-365
-340
-309
-262
-201
-135
-75
-23
25
59
81
85
74
57
37
21
8
-13
-48
-88
-132
-177
-219
-257
-296
-324
-343
-355
-358
-355
-338
-316
-296
-272
-253
-235
-216
-193
-171
-146
-115
-94
-73
-39
20
107
211
312
386
429
445
438
417
383
336
282
226
172
124
83
43
1
-34
-61
-79
-90
-90
-85
-64
-35
-6
28
60
96
133
177
219
261
302
334
375
423
472
528
587
661
744
818
863
880
892
909
923
915
900
875
850
829
792
736
667
595
520
437
351
270
200
147
86
36
-8
-45
-74
-90
-101
-103
-96
-87
-65
-46
-20
12
50
94
139
185
232
280
325
370
413
447
479
508
531
550
566
580
599
615
633
651
669
689
709
720
733
740
740
740
740
740
736
729
720
710
698
679
663
651
640
633
630
629
622
617
609
603
588
572
554
533
506
478
447
420
388
354
324
291
262
235
208
185
164
149
135
124
109
101
89
81
78
71
71
71
72
71
71
71
73
73
71
68
65
60
54
48
41
34
24
13
5
-3
-9
-14
-19
-18
-19
-17
-15
-9
-5
-2
-2
-6
-14
-22
-37
-58
-82
-111
-138
-165
-193
-220
-247
-265
-286
-305
-325
-342
-355
-376
-385
-393
-399
-414
-424
-432
-435
-438
-438
-435
-432
-430
-428
-426
-428
-436
-450
-466
-488
-506
-533
-556
-578
-596
-612
-625
-633
-639
-646
-656
-664
-677
-691
-706
-720
-733
-743
-754
-761
-766
-768
-766
-761
-754
-744
-737
-728
-717
-701
-689
-673
-661
-649
-634
-620
-603
-585
-562
-538
-511
-482
-454
-425
-396
-367
-338
-313
-289
-266
-247
-227
-210
-194
-179
-162
-143
-119
-96
-71
-43
-15
11
39
67
91
111
129
148
168
185
198
206
210
207
206
203
193
181
171
159
147
139
131
127
121
114
107
101
94
90
86
84
82
84
91
94
101
104
104
110
116
119
127
138
141
149
150
154
153
156
160
163
166
165
163
165
166
163
163
163
163
165
171
178
188
200
214
228
238
251
261
269
277
283
287
294
298
300
296
291
283
270
256
236
213
190
170
152
134
112
90
69
56
46
44
49
56
66
79
97
112
134
152
165
182
198
210
216
218
221
223
221
219
220
223
223
229
237
243
249
258
268
273
282
290
301
314
326
329
338
347
359
372
384
395
403
411
422
421
411
395
374
360
343
330
320
311
298
295
294
291
286
275
261
246
229
209
189
167
148
124
102
79
53
28
9
-11
-31
-50
-62
-75
-87
-96
-107
-123
-137
-154
-170
-185
-198
-212
-220
-227
-235
-240
-242
-243
-241
-239
-235
-228
-221
-214
-208
-200
-198
-199
-197
-197
-200
-199
-198
-197
-200
-206
-211
-215
-215
-222
-227
-241
-260
-282
-301
-318
-333
-349
-368
-386
-404
-421
-429
-435
-441
-446
-448
-454
-459
-464
-466
-468
-470
-471
-469
-465
-467
-460
-454
-447
-434
-420
-399
-378
-352
-328
-302
-277
-255
-238
-222
-209
-202
-195
-197
-197
-196
-199
-201
-204
-206
-213
-220
-219
-220
-218
-212
-210
-207
-203
-198
-189
-180
-169
-151
-134
-113
-94
-70
-45
-19
9
36
63
92
123
150
172
192
210
222
231
236
233
228
222
211
195
181
169
152
138
121
108
100
96
95
98
103
113
126
145
163
184
202
219
235
242
254
263
263
266
265
262
264
259
258
259
262
264
267
267
267
265
266
261
255
249
236
224
213
200
186
171
160
151
141
135
133
133
129
128
129
132
136
144
156
168
181
196
212
227
243
259
265
271
278
285
294
299
303
308
311
314
317
319
322
324
324
324
321
319
321
320
316
310
299
290
283
274
269
259
251
244
240
233
226
223
218
216
212
208
207
203
204
207
206
203
197
192
183
183
183
180
175
170
165
162
158
151
145
135
125
116
103
89
75
61
47
33
22
13
1
-5
-9
-17
-26
-41
-53
-70
-90
-110
-135
-158
-183
-203
-226
-249
-273
-295
-315
-329
-340
-354
-367
-379
-395
-414
-430
-450
-471
-495
-516
-537
-556
-575
-596
-617
-629
-641
-651
-657
-661
-665
-660
-656
-658
-656
-654
-653
-651
-648
-649
-647
-644
-637
-626
-615
-602
-590
-576
-560
-541
-523
-499
-479
-459
-436
-413
-395
-377
-365
-352
-336
-327
-314
-301
-283
-267
-248
-230
-207
-177
-152
-123
-91
-62
-30
4
39
73
109
140
171
199
223
247
262
279
293
303
311
319
325
326
328
327
330
326
328
320
314
303
295
288
282
275
266
253
241
233
230
230
227
230
234
232
233
230
227
226
221
213
203
191
185
178
171
162
150
143
135
124
112
98
87
67
46
27
13
2
-10
-21
-23
-21
-16
-9
1
16
36
61
82
107
132
158
185
209
233
253
272
289
306
321
334
345
351
356
361
366
369
373
380
388
395
402
411
423
434
440
448
447
444
439
430
420
402
377
347
314
274
237
196
155
111
71
33
-4
-36
-71
-106
-134
-165
-195
-227
-259
-289
-323
-353
-386
-417
-442
-474
-500
-523
-548
-565
-573
-572
-560
-530
-476
-392
-286
-149
13
186
364
539
706
860
991
1108
1201
1281
1343
1373
1383
1365
1330
1273
1200
1121
1027
927
825
717
614
519
430
357
296
242
200
174
157
148
147
146
147
144
128
103
68
25
-26
-80
-139
-201
-264
-327
-389
-447
-507
-573
-642
-718
-805
-903
-1013
-1130
-1248
-1361
-1480
-1596
-1706
-1794
-1861
-1914
-1967
-2031
-2071
-2077
-2061
-2030
-1993
-1951
-1915
-1859
-1742
-1580
-1407
-1261
-1153
-1062
-982
-913
-850
-787
-732
-680
-637
-592
-522
-432
-345
-245
-131
-6
132
274
433
598
759
916
1073
1226
1376
1507
1616
1700
1763
1807
1830
1833
1807
1742
1641
1513
1365
1210
1045
882
725
580
450
340
246
177
124
91
68
62
62
62
65
58
47
31
12
-18
-49
-82
-115
-145
-168
-191
-209
-227
-246
-266
-286
-310
-338
-372
-406
-450
-491
-529
-567
-598
-619
-634
-639
-633
-613
-584
-547
-503
-450
-390
-326
-255
-179
-103
-20
64
146
232
318
392
467
535
593
646
689
726
754
776
791
797
798
796
787
773
755
732
705
680
650
618
585
549
519
496
484
475
471
468
464
464
466
468
471
474
471
468
469
465
457
442
424
403
375
349
315
277
238
196
148
107
70
30
-2
-32
-55
-69
-69
-67
-64
-63
-66
-68
-70
-69
-73
-77
-82
-88
-99
-112
-126
-138
-166
-193
-206
-211
-220
-239
-254
-272
-298
-322
-348
-382
-415
-441
-456
-462
-462
-456
-443
-429
-406
-370
-337
-295
-266
-233
-205
-172
-138
-110
-85
-58
-36
-14
8
28
55
82
109
129
150
169
190
207
218
225
227
231
237
250
260
272
277
278
267
250
246
255
272
288
311
337
344
332
304
267
238
215
201
185
170
161
165
169
172
167
157
154
158
164
165
161
154
149
139
120
84
38
-9
-56
-101
-144
-188
-227
-261
-283
-300
-316
-334
-355
-373
-392
-410
-429
-454
-482
-514
-546
-584
-629
-652
-634
-585
-528
-479
-430
-381
-333
-285
-241
-208
-179
-151
-131
-122
-119
-119
-116
-107
-89
-76
-68
-62
-52
-45
-40
-42
-49
-57
-64
-77
-91
-107
-123
-137
-156
-177
-196
-214
-225
-232
-237
-237
-229
-217
-195
-175
-152
-140
-139
-131
-121
-105
-94
-84
-80
-81
-75
-58
-37
-16
10
32
54
73
101
123
144
163
180
201
213
226
236
243
242
231
219
206
195
181
163
142
118
98
75
44
10
-31
-68
-108
-148
-187
-227
-261
-293
-317
-328
-336
-354
-372
-382
-380
-379
-377
-378
-376
-360
-346
-333
-323
-314
-315
-298
-262
-234
-236
-302
-394
-387
-197
92
290
289
127
-80
-249
-355
-411
-424
-386
-299
-189
-107
-90
-130
-144
-102
-34
48
111
139
145
145
129
85
21
-32
-79
-135
-195
-244
-274
-293
-294
-287
-271
-254
-238
-219
-201
-178
-145
-110
-73
-37
0
31
61
88
119
140
154
156
163
172
174
180
180
176
170
167
161
155
131
78
21
7
36
87
142
178
199
216
232
252
266
275
273
269
268
268
267
269
277
284
293
301
312
315
320
321
319
320
314
306
298
271
224
185
174
191
223
246
261
281
301
316
325
331
333
335
332
320
311
300
290
282
274
263
248
233
213
202
190
174
160
145
135
128
124
118
115
112
110
112
118
126
124
113
78
31
-6
-1
39
98
152
190
215
243
272
289
295
293
283
264
237
204
172
140
105
73
35
1
-30
-61
-91
-118
-143
-164
-183
-205
-217
-230
-241
-247
-257
-264
-273
-280
-285
-288
-287
-287
-283
-273
-266
-261
-257
-255
-250
-248
-250
-256
-264
-275
-284
-297
-306
-313
-319
-325
-332
-339
-348
-361
-372
-381
-392
-406
-421
-435
-450
-468
-483
-498
-511
-521
-531
-542
-551
-562
-564
-562
-556
-537
-494
-442
-425
-458
-529
-609
-685
-739
-763
-756
-712
-638
-550
-459
-379
-310
-248
-190
-137
-93
-57
-25
2
18
28
24
21
15
0
-16
-29
-29
-20
1
34
74
121
169
218
263
300
336
365
392
411
425
436
445
445
446
442
437
430
422
411
406
404
403
407
411
413
419
424
428
429
424
419
407
397
383
371
356
341
323
306
290
276
260
248
240
236
250
286
323
331
296
230
148
75
8
-36
-52
-43
-10
32
69
106
138
162
186
204
210
214
212
201
185
163
139
112
84
59
36
13
-8
-24
-39
-49
-49
-42
-33
-22
-8
13
40
70
96
127
167
219
272
330
385
443
501
567
635
704
760
797
825
849
868
895
938
1021
1137
1234
1286
1297
1284
1251
1207
1112
900
577
197
-184
-552
-924
-1309
-1676
-2019
-2308
-2515
-2643
-2712
-2716
-2652
-2533
-2395
-2246
-2105
-1969
-1843
-1738
-1658
-1640
-1664
-1644
-1533
-1359
-1185
-1024
-863
-676
-463
-237
-30
152
313
462
587
685
761
817
858
880
892
897
902
913
917
912
899
888
885
892
912
936
962
992
1018
1039
1045
1031
1005
978
948
914
877
838
804
779
771
763
762
752
721
687
654
610
530
413
303
251
251
272
292
300
299
302
307
314
310
301
284
256
221
168
106
55
7
-42
-96
-151
-193
-227
-266
-299
-305
-306
-300
-305
-314
-304
-279
-250
-216
-189
-174
-166
-169
-183
-201
-235
-283
-332
-378
-424
-477
-522
-560
-594
-620
-644
-665
-666
-660
-652
-637
-614
-586
-557
-526
-491
-454
-415
-379
-339
-304
-272
-243
-220
-197
-175
-158
-147
-141
-146
-153
-163
-171
-177
-185
-195
-205
-217
-229
-238
-248
-255
-256
-255
-245
-233
-218
-201
-183
-165
-152
-143
-138
-136
-128
-115
-98
-75
-52
-36
-23
-8
7
16
27
39
50
60
67
73
80
91
100
108
117
123
133
141
150
161
167
173
179
180
180
179
173
168
163
162
165
172
180
188
198
210
220
233
246
259
267
274
281
280
271
259
245
225
204
182
161
147
108
-14
-154
-213
-162
-49
66
143
215
293
381
463
514
540
554
552
528
490
451
423
400
377
349
320
294
275
261
247
233
217
202
177
144
110
79
47
21
5
6
19
47
71
87
98
107
116
123
126
120
108
97
94
84
57
34
32
40
40
31
12
11
35
57
49
-20
-127
-238
-328
-390
-449
-479
-468
-423
-364
-304
-243
-198
-161
-130
-109
-99
-104
-122
-145
-175
-201
-222
-241
-256
-272
-271
-268
-259
-247
-231
-211
-191
-169
-152
-135
-130
-137
-134
-121
-92
-65
-47
-33
-30
-23
-14
0
19
36
53
66
82
97
109
120
130
134
135
141
146
153
169
193
212
232
247
255
253
248
238
222
196
161
123
84
41
5
-35
-65
-95
-121
-147
-169
-186
-204
-220
-239
-261
-285
-306
-332
-360
-390
-397
-392
-393
-400
-407
-402
-391
-380
-370
-366
-358
-347
-336
-320
-301
-275
-244
-221
-190
-168
-144
-124
-104
-85
-69
-56
-46
-38
-35
-35
-33
-36
-40
-40
-44
-48
-48
-48
-43
-44
-55
-71
-79
-88
-100
-104
-98
-80
-57
-41
-32
-28
-30
-29
-28
-32
-45
-60
-77
-94
-112
-126
-141
-153
-167
-176
-180
-184
-179
-171
-154
-135
-116
-95
-78
-60
-40
-23
-8
7
24
44
61
76
91
101
104
104
101
95
91
86
72
57
46
37
37
38
45
59
77
92
109
129
143
157
166
173
177
185
186
191
199
194
186
177
167
157
146
132
115
96
75
55
39
27
22
15
12
11
9
9
6
3
2
-1
3
7
15
23
43
62
92
124
155
185
210
228
248
290
342
402
443
456
451
438
423
381
322
260
194
121
43
-41
-119
-191
-256
-315
-366
-404
-434
-454
-468
-482
-483
-477
-467
-452
-446
-434
-419
-401
-385
-371
-361
-354
-346
-336
-316
-293
-265
-244
-215
-186
-155
-124
-90
-62
-36
-14
9
25
35
40
42
42
37
33
34
39
38
44
53
63
78
97
116
138
155
167
170
166
155
138
114
83
49
13
-27
-65
-103
-138
-171
-198
-219
-234
-246
-252
-253
-247
-241
-229
-216
-199
-182
-169
-158
-147
-141
-134
-130
-124
-117
-109
-105
-101
-96
-95
-91
-90
-90
-90
-94
-99
-106
-112
-118
-125
-125
-125
-121
-118
-110
-103
-101
-103
-112
-144
-235
-431
-686
-833
-810
-620
-370
-147
12
128
238
356
478
564
610
623
598
552
507
472
428
375
322
286
258
240
231
226
228
229
233
245
269
295
324
340
357
369
378
383
385
382
377
364
345
323
304
289
274
248
218
180
141
97
53
9
-32
-73
-118
-159
-196
-233
-265
-286
-305
-318
-333
-352
-357
-347
-331
-313
-299
-278
-252
-222
-187
-151
-122
-88
-55
-25
4
29
51
70
92
114
138
163
189
220
248
276
302
333
364
397
432
460
489
518
546
569
592
611
627
642
654
663
668
676
677
672
665
653
646
636
621
605
588
572
553
534
515
490
466
437
409
381
348
313
277
242
208
173
136
95
51
-1
-49
-107
-161
-217
-276
-333
-393
-452
-512
-569
-621
-668
-709
-741
-762
-779
-787
-789
-783
-773
-760
-747
-731
-712
-699
-685
-674
-666
-656
-643
-626
-605
-582
-622
-761
-829
-738
-558
-396
-300
-230
-144
-40
59
125
165
197
226
242
234
206
179
164
167
176
176
175
170
171
171
167
166
164
162
158
148
136
122
104
79
49
14
-21
-45
-56
-59
-62
-68
-79
-85
-89
-92
-94
-100
-108
-117
-128
-135
-147
-163
-178
-193
-209
-227
-243
-262
-284
-309
-334
-360
-390
-417
-440
-460
-479
-493
-508
-518
-519
-514
-506
-494
-473
-446
-393
-313
-222
-173
-200
-290
-413
-529
-620
-682
-698
-668
-600
-506
-402
-301
-210
-137
-74
-26
8
28
34
25
1
-30
-67
-108
-145
-172
-192
-203
-212
-216
-212
-207
-201
-193
-183
-175
-172
-170
-169
-169
-171
-173
-174
-170
-164
-153
-142
-128
-112
-99
-83
-67
-50
-31
-15
2
22
42
64
88
114
140
165
190
209
226
241
251
257
260
259
254
251
248
242
242
242
243
244
245
250
253
257
263
272
280
290
295
302
307
310
311
312
314
314
312
311
310
311
313
311
310
308
308
307
308
311
309
311
311
309
310
304
298
296
292
286
277
266
255
245
233
220
205
192
180
165
155
146
139
130
120
112
106
102
98
91
86
81
74
70
60
52
40
25
11
-3
-21
-33
-46
-59
-70
-76
-82
-85
-84
-81
-75
-65
-50
-31
-12
15
39
65
85
102
116
126
136
139
141
140
140
136
138
139
140
144
145
148
150
155
162
166
175
183
192
200
203
208
212
211
203
191
173
154
128
102
78
54
35
17
0
-11
-21
-30
-39
-44
-50
-56
-60
-64
-73
-81
-90
-98
-106
-113
-120
-124
-127
-132
-135
-134
-132
-130
-125
-120
-112
-106
-99
-93
-84
-78
-70
-61
-53
-45
-36
-28
-16
-4
7
21
34
47
62
74
81
89
96
98
100
101
99
96
93
87
86
79
76
68
64
58
50
47
39
27
21
11
-6
-32
-51
-55
-57
-61
-71
-78
-83
-83
-79
-76
-74
-72
-66
-61
-58
-57
-57
-61
-65
-62
-61
-60
-57
-54
-50
-43
-37
-30
-18
-6
13
31
54
74
97
118
134
152
165
176
183
188
188
183
175
166
158
148
139
131
123
113
106
96
84
70
56
43
29
14
-1
-16
-31
-39
-45
-46
-47
-43
-35
-27
-20
-14
-9
-6
-2
2
8
11
15
15
16
16
16
14
16
15
16
17
20
25
25
32
38
43
48
50
57
68
83
99
117
133
150
168
180
190
197
197
193
184
173
157
144
127
111
98
84
76
67
58
49
41
30
17
0
-22
-46
-77
-111
-150
-188
-227
-267
-301
-337
-368
-398
-420
-437
-445
-453
-456
-455
-451
-446
-439
-432
-422
-411
-398
-388
-379
-366
-354
-339
-321
-305
-283
-262
-239
-215
-187
-161
-132
-107
-85
-64
-50
-41
-35
-27
-20
-13
-7
6
13
23
35
39
46
39
23
-61
-174
-218
-182
-73
61
168
225
259
298
342
379
399
390
356
304
229
148
68
-4
-61
-100
-132
-154
-164
-161
-155
-147
-121
-89
-54
-20
5
21
28
41
58
73
81
75
67
58
46
32
15
-4
-23
-40
-58
-78
-99
-123
-137
-141
-140
-141
-140
-133
-122
-109
-88
-40
43
138
182
152
58
-66
-184
-279
-341
-356
-327
-261
-178
-97
-26
31
79
122
148
159
152
132
103
64
22
-19
-51
-76
-93
-102
-104
-102
-89
-68
-39
-9
29
70
114
152
189
225
256
278
299
318
333
339
344
353
373
391
412
429
438
445
445
444
434
422
410
400
390
382
375
371
366
361
360
368
374
378
382
384
384
380
374
371
363
356
350
346
342
332
326
317
308
299
292
280
267
253
236
220
204
183
157
129
97
66
36
8
-20
-40
-53
-61
-68
-71
-68
-67
-63
-54
-46
-34
-23
-12
-2
4
3
-2
-6
-6
12
35
45
22
-33
-106
-183
-249
-301
-329
-330
-301
-255
-202
-150
-107
-66
-30
0
18
29
32
31
24
9
-13
-33
-56
-78
-95
-112
-123
-138
-147
-148
-152
-156
-151
-144
-144
-143
-133
-121
-117
-103
-102
-109
-118
-110
-91
-92
-112
-145
-172
-190
-205
-213
-219
-235
-252
-261
-277
-295
-315
-326
-335
-339
-332
-314
-301
-298
-302
-304
-306
-310
-311
-309
-305
-297
-294
-291
-290
-290
-286
-284
-285
-290
-297
-308
-320
-325
-319
-299
-270
-233
-196
-163
-137
-110
-90
-68
-56
-50
-50
-56
-67
-80
-95
-109
-118
-117
-109
-103
-94
-82
-71
-55
-42
-22
-7
7
17
24
29
37
44
50
57
61
65
62
60
59
55
55
49
40
29
24
21
13
6
-1
-7
-12
-19
-31
-39
-44
-48
-54
-58
-64
-70
-78
-85
-87
-91
-92
-87
-79
-66
-53
-40
-28
-15
1
19
37
50
61
69
73
75
71
68
57
42
27
17
6
-5
-18
-26
-36
-46
-47
-52
-61
-66
-73
-78
-96
-111
-128
-151
-176
-195
-209
-221
-225
-217
-201
-181
-158
-135
-106
-80
-51
-27
-4
18
36
50
66
82
97
115
134
153
169
184
197
209
223
236
249
265
276
292
306
321
335
352
369
382
398
407
413
421
429
438
450
463
477
490
504
518
528
541
551
561
569
571
572
570
565
557
547
532
518
498
477
454
432
406
383
357
336
310
284
261
233
204
177
155
130
106
80
57
38
17
-2
-19
-33
-44
-53
-57
-60
-56
-50
-42
-29
-13
0
16
31
43
53
58
59
54
45
31
16
-4
-17
-32
-47
-61
-75
-90
-102
-117
-128
-137
-146
-158
-166
-172
-176
-184
-197
-206
-214
-222
-225
-236
-253
-261
-273
-282
-298
-314
-327
-343
-356
-369
-388
-413
-440
-466
-493
-525
-560
-595
-627
-658
-683
-700
-716
-724
-729
-730
-724
-711
-694
-673
-652
-633
-609
-586
-564
-543
-528
-513
-496
-485
-471
-457
-441
-422
-398
-374
-345
-314
-283
-251
-221
-191
-164
-139
-114
-91
-72
-56
-44
-35
-30
-26
-25
-28
-34
-40
-47
-59
-69
-79
-87
-97
-102
-107
-115
-117
-116
-110
-103
-95
-89
-84
-83
-79
-81
-82
-87
-88
-88
-88
-86
-78
-66
-56
-43
-33
-26
-22
-18
-21
-23
-30
-31
-22
-2
39
103
199
324
472
640
816
995
1165
1326
1476
1614
1735
1830
1894
1930
1938
1918
1871
1793
1688
1565
1416
1250
1078
905
743
595
469
368
290
235
196
180
186
200
223
247
268
284
291
289
271
230
165
81
-12
-107
-200
-294
-389
-490
-589
-674
-753
-823
-883
-938
-989
-1030
-1067
-1103
-1141
-1191
-1245
-1299
-1358
-1418
-1479
-1533
-1567
-1590
-1600
-1593
-1561
-1512
-1430
-1321
-1197
-1075
-955
-811
-654
-507
-368
-237
-116
-26
20
51
115
225
381
553
711
846
977
1111
1240
1362
1469
1554
1624
1675
1707
1716
1701
1676
1630
1565
1480
1376
1259
1138
1018
885
748
607
458
308
159
17
-114
-223
-309
-387
-456
-518
-569
-617
-656
-687
-714
-742
-780
-826
-878
-930
-1001
-1119
-1279
-1462
-1626
-1758
-1865
-1958
-2039
-2098
-2130
-2140
-2133
-2112
-2074
-2018
-1938
-1844
-1745
-1632
-1498
-1353
-1196
-1028
-852
-670
-484
-295
-98
99
287
475
656
824
978
1119
1243
1348
1438
1512
1576
1631
1666
1686
1684
1678
1666
1646
1613
1566
1508
1442
1371
1292
1210
1125
1037
956
876
803
737
670
617
564
526
497
471
445
426
404
384
369
371
379
393
404
401
400
398
396
394
338
183
35
2
73
191
281
343
407
477
549
606
643
667
680
684
658
616
559
507
455
400
345
294
247
200
157
114
81
54
29
8
-11
-25
-47
-67
-84
-95
-102
-113
-117
-115
-109
-103
-94
-81
-76
-75
-80
-85
-88
-96
-104
-111
-115
-118
-113
-105
-91
-77
-62
-40
-23
-2
20
51
76
103
124
142
155
160
162
151
138
122
101
76
45
15
-13
-45
-73
-98
-123
-148
-168
-187
-199
-212
-220
-227
-235
-236
-243
-250
-263
-276
-293
-311
-334
-363
-391
-416
-437
-453
-467
-481
-487
-487
-488
-481
-467
-461
-448
-441
-438
-438
-446
-451
-444
-413
-379
-333
-293
-266
-245
-231
-219
-211
-203
-196
-198
-211
-220
-237
-251
-265
-279
-284
-294
-304
-307
-325
-341
-352
-369
-378
-380
-367
-354
-351
-360
-354
-359
-357
-342
-340
-325
-315
-294
-271
-262
-252
-231
-221
-197
-191
-207
-213
-207
-193
-191
-192
-197
-191
-178
-157
-139
-125
-117
-117
-114
-111
-103
-100
-90
-78
-70
-66
-62
-56
-53
-44
-35
-24
-14
-1
18
37
59
81
109
138
161
183
201
220
236
250
259
276
291
309
320
331
339
340
340
344
344
335
328
316
297
280
258
233
210
190
168
145
117
90
76
61
50
38
31
29
25
24
17
12
6
5
7
-3
-12
-23
-32
-38
-46
-53
-65
-70
-73
-71
-71
-71
-71
-67
-56
-42
-28
-10
7
22
37
56
75
92
111
127
140
155
170
180
194
210
222
234
241
246
248
257
264
274
277
288
300
311
326
336
346
354
367
377
388
402
416
428
433
435
431
427
413
398
376
346
316
285
249
214
180
146
115
87
68
51
34
25
16
7
4
-4
-12
-25
-37
-55
-71
-89
-106
-130
-153
-177
-208
-236
-265
-296
-329
-364
-400
-433
-464
-490
-517
-540
-551
-556
-559
-551
-540
-524
-504
-480
-456
-439
-418
-398
-387
-381
-375
-377
-384
-397
-404
-419
-436
-448
-460
-463
-465
-462
-455
-439
-418
-395
-368
-335
-304
-277
-254
-235
-219
-210
-204
-202
-202
-202
-203
-203
-201
-199
-198
-194
-185
-182
-177
-166
-154
-145
-134
-128
-121
-116
-112
-111
-112
-115
-120
-126
-130
-140
-145
-155
-161
-163
-163
-160
-158
-159
-155
-149
-145
-138
-128
-117
-105
-99
-92
-88
-78
-70
-61
-52
-43
-33
-21
-12
-6
8
20
33
41
51
60
74
83
96
108
116
123
130
136
141
147
153
157
154
154
151
152
148
147
143
143
142
144
149
158
169
177
183
189
195
196
194
189
178
166
154
141
131
120
111
101
100
103
107
111
115
123
135
146
158
168
174
177
177
173
172
169
167
169
165
158
149
137
125
117
110
105
101
98
96
102
112
126
146
166
185
202
220
242
260
264
164
-33
-161
-159
-59
85
205
304
400
494
589
664
712
739
745
728
688
636
589
558
534
514
491
469
455
439
427
416
401
384
361
336
305
270
237
198
163
122
84
51
16
-11
-45
-74
-108
-165
-245
-317
-352
-361
-349
-326
-293
-257
-223
-184
-153
-129
-106
-89
-78
-75
-75
-79
-84
-89
-87
-81
-74
-67
-64
-57
-54
-50
-48
-45
-44
-46
-47
-46
-48
-51
-56
-59
-59
-58
-56
-53
-47
-36
-22
-1
22
49
79
120
163
210
262
317
372
418
449
474
501
542
600
683
757
786
779
774
790
830
869
854
741
518
190
-200
-600
-1004
-1383
-1715
-2008
-2269
-2461
-2550
-2566
-2532
-2447
-2304
-2125
-1937
-1758
-1585
-1428
-1301
-1188
-1078
-971
-870
-774
-679
-581
-477
-369
-253
-129
-8
115
236
347
452
548
627
693
744
777
790
785
766
729
681
623
559
493
423
360
309
266
234
213
203
205
218
241
279
322
365
417
469
523
575
623
670
712
748
772
788
786
774
751
712
658
591
517
434
353
273
195
119
44
-24
-85
-138
-187
-227
-262
-286
-298
-303
-305
-303
-294
-282
-273
-267
-262
-269
-279
-294
-314
-338
-364
-390
-411
-431
-447
-458
-463
-463
-454
-437
-416
-388
-351
-308
-264
-216
-167
-121
-69
-21
28
73
113
151
184
215
246
272
292
309
323
333
340
344
340
337
335
327
319
307
293
278
256
238
220
198
178
158
142
124
110
99
90
81
75
73
68
64
63
59
51
43
37
28
21
14
4
-3
-9
-11
-11
-11
-10
-6
-6
-5
-5
-8
-13
-24
-37
-48
-63
-80
-97
-115
-128
-143
-156
-169
-177
-178
-178
-174
-165
-156
-145
-136
-124
-112
-100
-89
-77
-66
-55
-43
-35
-21
-8
5
18
26
33
42
47
53
59
64
69
76
81
86
88
87
84
78
72
62
48
38
25
13
2
-11
-29
-40
-48
-54
-62
-67
-67
-64
-58
-55
-52
-45
-34
-25
-14
-1
14
29
47
57
65
73
77
82
81
79
76
70
65
59
53
48
47
49
55
64
72
82
89
93
99
102
102
102
101
98
101
99
99
100
101
101
98
98
95
91
90
87
86
83
80
82
82
83
84
86
87
93
97
100
103
104
104
105
108
110
115
117
124
125
124
123
121
115
105
97
86
77
68
56
46
35
20
5
-9
-24
-39
-51
-67
-81
-97
-107
-120
-130
-135
-142
-143
-145
-144
-140
-136
-130
-123
-112
-103
-95
-82
-72
-63
-52
-44
-37
-31
-26
-20
-16
-13
-10
-7
-7
-15
-17
-22
-28
-33
-47
-57
-68
-83
-98
-119
-138
-155
-169
-182
-192
-201
-209
-215
-218
-218
-220
-221
-220
-221
-218
-215
-205
-196
-187
-176
-165
-153
-135
-116
-97
-75
-53
-31
-9
12
31
51
67
80
96
107
119
127
132
134
133
131
128
121
111
102
90
72
53
24
-30
-146
-308
-413
-409
-341
-265
-208
-168
-124
-82
-48
-29
-26
-32
-51
-80
-121
-153
-174
-181
-180
-176
-171
-163
-159
-156
-150
-140
-129
-116
-111
-112
-122
-130
-133
-131
-135
-135
-134
-137
-131
-124
-112
-95
-80
-60
-40
-20
1
18
35
50
68
85
102
116
133
148
158
165
167
170
172
159
138
118
78
41
53
103
179
247
304
342
365
372
358
314
252
180
107
31
-48
-125
-195
-250
-290
-324
-348
-360
-355
-341
-322
-295
-263
-230
-192
-157
-118
-78
-44
-9
16
41
63
81
101
121
144
166
190
215
245
276
313
347
389
429
469
509
550
587
620
649
674
690
704
709
703
690
668
641
614
583
550
515
481
449
421
394
369
347
323
303
286
265
243
221
199
178
156
134
113
91
69
49
31
13
-4
-17
-32
-47
-56
-67
-79
-84
-90
-92
-89
-82
-69
-54
-33
-12
10
32
55
79
98
116
128
138
141
142
135
116
69
7
-31
-21
24
70
90
92
90
82
69
51
15
-23
-62
-108
-151
-191
-224
-241
-237
-220
-222
-247
-265
-266
-255
-251
-266
-298
-324
-338
-344
-356
-368
-371
-368
-358
-353
-355
-358
-366
-372
-378
-386
-389
-391
-394
-394
-386
-377
-365
-350
-336
-319
-297
-277
-253
-224
-195
-163
-129
-97
-66
-37
-12
14
32
46
58
66
67
69
68
68
70
70
73
74
77
81
82
87
90
95
103
108
114
122
131
142
152
160
164
167
165
162
156
151
143
138
128
120
113
102
89
78
67
58
54
48
43
40
36
31
26
19
11
4
-3
-5
-10
-9
-8
-7
-4
1
5
12
19
28
34
40
52
61
66
75
82
88
95
104
112
123
138
147
161
176
189
200
210
216
218
218
220
211
198
181
159
139
118
98
77
51
26
0
-27
-46
-62
-75
-82
-85
-86
-82
-72
-59
-41
-24
-2
18
36
52
71
86
102
116
128
128
119
105
86
70
55
41
27
17
16
17
24
32
42
54
67
77
90
101
107
115
120
122
123
125
123
120
117
116
113
113
111
110
109
105
102
94
86
75
59
47
32
18
-1
-16
-32
-47
-63
-77
-90
-102
-115
-127
-138
-144
-148
-156
-163
-166
-168
-172
-172
-169
-166
-161
-151
-140
-128
-112
-93
-75
-55
-33
-16
2
15
25
29
26
20
11
7
2
3
0
-5
-8
-12
-17
-24
-32
-39
-46
-56
-71
-86
-99
-135
-210
-409
-640
-752
-731
-622
-479
-359
-275
-221
-179
-161
-147
-131
-146
-171
-182
-150
-82
-5
42
-24
-149
-173
-52
164
365
504
603
702
806
889
925
924
894
843
770
675
588
517
466
417
357
288
228
200
199
184
125
52
4
-6
-10
-32
-66
-93
-113
-133
-146
-150
-131
-93
-59
-37
-38
-69
-102
-136
-165
-191
-225
-268
-315
-366
-409
-443
-465
-467
-441
-389
-334
-288
-244
-205
-171
-140
-106
-80
-52
-24
-2
18
37
47
52
50
49
44
41
37
20
1
-22
-46
-67
-92
-118
-141
-187
-249
-302
-318
-291
-244
-196
-151
-106
-49
12
64
112
149
176
195
213
227
238
253
272
282
277
257
224
185
133
67
8
-19
-12
4
19
27
25
23
32
47
53
50
29
2
-16
-32
-49
-64
-78
-84
-77
-64
-52
-41
-28
-10
16
49
77
107
130
142
142
132
120
109
101
88
80
80
98
125
147
137
85
9
-81
-176
-262
-312
-318
-295
-261
-228
-185
-138
-82
-19
34
87
146
204
251
284
318
330
328
324
303
270
242
214
190
153
108
72
43
26
16
6
8
7
4
0
-5
-16
-30
-48
-69
-89
-112
-136
-160
-183
-210
-243
-267
-293
-316
-337
-355
-366
-374
-375
-377
-383
-386
-384
-375
-368
-361
-360
-354
-344
-333
-319
-306
-288
-274
-258
-243
-231
-219
-209
-197
-183
-169
-156
-139
-125
-106
-78
-53
-23
3
27
48
62
73
78
73
65
50
28
-2
-27
-55
-83
-104
-124
-141
-155
-164
-169
-169
-167
-166
-161
-157
-149
-145
-138
-131
-124
-120
-120
-120
-123
-124
-120
-120
-121
-117
-117
-126
-134
-143
-153
-163
-172
-174
-177
-178
-177
-178
-175
-168
-162
-155
-148
-139
-135
-132
-129
-126
-120
-115
-103
-92
-80
-68
-53
-34
-13
11
38
64
89
110
130
145
158
170
181
194
206
219
237
253
271
288
303
318
330
339
340
332
325
316
306
302
302
308
317
327
344
363
385
411
434
457
478
501
519
533
543
550
547
539
526
509
491
473
453
432
414
396
380
366
347
333
315
298
279
259
243
221
203
180
158
137
109
68
-43
-224
-338
-353
-289
-197
-130
-82
-48
-6
43
63
62
62
72
80
77
64
54
52
45
44
62
87
113
131
158
189
222
253
279
294
303
310
318
322
317
300
276
254
229
203
176
149
117
84
49
12
-18
-49
-79
-109
-140
-169
-201
-232
-263
-295
-328
-358
-384
-406
-419
-427
-423
-417
-406
-394
-380
-375
-374
-372
-368
-364
-359
-357
-356
-348
-336
-325
-312
-305
-298
-289
-282
-272
-270
-263
-258
-253
-250
-252
-253
-252
-246
-237
-226
-221
-215
-208
-199
-191
-183
-178
-176
-177
-180
-188
-196
-203
-203
-202
-200
-198
-194
-185
-181
-174
-173
-167
-161
-155
-147
-142
-131
-118
-104
-91
-79
-69
-60
-50
-40
-31
-17
-4
5
14
22
30
32
37
38
37
33
33
35
36
41
48
57
65
74
89
102
115
118
122
118
111
123
144
136
98
119
137
137
154
135
126
85
120
161
146
93
33
-5
-66
-131
-157
-165
-185
-184
-151
-123
-120
-132
-118
-85
-46
-13
18
56
90
117
142
165
183
198
206
201
186
172
157
141
120
102
78
57
34
17
-1
-17
-34
-47
-50
-50
-49
-46
-38
-26
-5
10
32
55
71
90
107
122
133
144
161
179
194
204
210
217
222
222
217
210
204
198
192
185
174
163
157
150
141
132
119
100
80
61
41
28
9
-7
-23
-37
-52
-65
-80
-95
-110
-120
-133
-143
-154
-167
-178
-190
-204
-217
-232
-246
-257
-266
-273
-277
-279
-277
-272
-264
-255
-248
-241
-230
-221
-209
-197
-182
-167
-154
-138
-123
-108
-93
-80
-70
-64
-60
-55
-52
-52
-51
-49
-50
-48
-47
-44
-38
-30
-20
-13
-7
0
9
17
28
41
57
76
97
119
144
168
190
210
228
243
258
271
281
287
292
293
291
289
284
275
268
260
253
244
236
229
226
218
212
206
203
203
203
204
203
202
202
201
203
205
206
207
204
198
191
178
163
145
123
98
65
31
-5
-46
-85
-129
-169
-208
-241
-270
-311
-411
-533
-584
-540
-438
-341
-275
-220
-162
-103
-47
-15
2
8
3
-15
-43
-73
-97
-112
-128
-146
-164
-186
-206
-223
-239
-252
-261
-270
-277
-277
-279
-279
-276
-269
-264
-256
-245
-233
-220
-206
-192
-177
-163
-151
-140
-129
-117
-107
-95
-87
-75
-69
-63
-61
-59
-58
-52
-47
-43
-39
-36
-36
-32
-30
-26
-25
-22
-20
-20
-19
-18
-12
-6
0
9
22
37
55
73
92
111
130
149
166
178
192
202
210
214
213
209
209
204
200
193
183
172
158
147
132
118
104
93
82
76
72
71
74
77
82
85
89
91
94
95
94
97
98
99
101
101
107
116
122
129
139
148
154
150
141
128
113
93
71
41
9
-27
-62
-101
-138
-175
-206
-232
-253
-268
-285
-296
-305
-315
-321
-331
-340
-350
-363
-370
-378
-384
-388
-390
-392
-390
-382
-371
-357
-341
-324
-304
-281
-260
-233
-207
-183
-154
-126
-102
-74
-48
-22
3
23
47
64
81
99
115
128
142
155
169
179
192
200
206
211
212
210
205
196
185
174
159
141
125
104
85
66
53
37
25
11
3
9
14
19
14
15
16
21
26
34
41
51
61
67
77
83
89
91
93
96
95
94
90
82
74
69
63
58
52
51
48
44
38
31
26
21
12
2
-7
-14
-19
-25
-29
-33
-35
-36
-36
-34
-33
-30
-27
-19
-12
-4
2
7
12
15
20
23
26
28
30
29
25
21
15
10
8
3
1
0
0
-1
-3
-5
-8
-12
-15
-19
-22
-27
-37
-51
-67
-87
-110
-136
-161
-190
-220
-252
-289
-328
-369
-412
-453
-492
-527
-558
-580
-598
-607
-613
-609
-604
-594
-580
-563
-545
-525
-502
-475
-446
-415
-378
-340
-299
-256
-210
-165
-114
-71
-30
15
54
94
127
160
189
212
229
239
244
245
238
226
214
201
186
172
158
142
127
117
107
101
97
96
97
104
119
131
149
164
178
188
200
208
210
204
190
166
132
91
49
6
-25
-43
-40
-7
63
173
323
503
704
909
1115
1315
1506
1682
1833
1956
2051
2113
2143
2141
2104
2032
1918
1768
1587
1381
1150
914
682
457
253
68
-95
-237
-354
-450
-523
-577
-617
-638
-654
-672
-700
-742
-795
-854
-923
-999
-1083
-1164
-1243
-1314
-1364
-1397
-1411
-1410
-1395
-1369
-1329
-1274
-1216
-1160
-1111
-1068
-1028
-1001
-990
-993
-1001
-1009
-1024
-1049
-1080
-1100
-1109
-1101
-1074
-1029
-967
-889
-798
-687
-563
-418
-268
-137
-26
76
176
263
338
399
443
477
504
528
543
567
608
670
756
859
987
1132
1287
1446
1595
1726
1837
1927
1990
2022
2008
1952
1861
1745
1606
1449
1271
1079
885
688
490
295
107
-75
-249
-408
-554
-683
-797
-897
-980
-1050
-1111
-1158
-1198
-1232
-1254
-1272
-1282
-1289
-1292
-1294
-1294
-1298
-1299
-1294
-1286
-1266
-1235
-1193
-1138
-1069
-988
-892
-793
-680
-565
-445
-328
-211
-91
19
123
217
303
386
463
535
602
663
719
773
822
868
909
951
987
1018
1050
1079
1107
1131
1154
1172
1191
1208
1222
1234
1243
1248
1244
1234
1220
1196
1170
1138
1101
1060
1021
978
931
885
834
783
735
690
636
593
554
517
480
441
400
364
332
305
283
263
244
219
192
169
147
126
104
81
54
38
25
11
-4
-26
-43
-60
-78
-100
-129
-160
-197
-231
-268
-305
-340
-375
-405
-437
-467
-491
-511
-528
-544
-554
-567
-580
-594
-609
-625
-638
-652
-666
-676
-687
-701
-722
-747
-791
-913
-1185
