0,0
834,985
831,968
785,967
830,978
895,1044
830,1010
859,1029
890,1111
863,1070
878,1099
906,1139
944,1147
987,1187
989,1290
1014,1307
1085,1343
1057,1429
1106,1434
1169,1487
1165,1538
1210,1584
1301,1722
1347,1721
1389,1823
1441,1933
1501,1985
1501,2035
1562,2130
1650,2224
1728,2292
1755,2365
1811,2480
1884,2496
1910,2606
1914,2650
2015,2747
2009,2808
2112,2906
2223,3030
2302,3148
2430,3340
2571,3563
2673,3698
2848,3957
2960,4212
3166,4464
3318,4716
3543,5029
3812,5345
4022,5689
4199,6030
4430,6374
4587,6540
4672,6691
4748,6846
4869,6976
4944,7065
5129,7371
5313,7689
5666,8069
5920,8601
6299,9178
6761,9783
7170,10444
7582,11114
8017,11655
8374,12172
8651,12565
8954,13006
9149,13313
9395,13662
9597,14094
9910,14449
10288,15052
10733,15735
11445,16744
12345,18075
13587,19947
15181,22323
17122,25127
19309,28411
21721,31876
24297,35555
26811,39183
29406,42844
32044,46603
34625,50120
37214,53701
39695,57349
42223,60771
44589,64095
46694,66729
48614,69164
49861,71127
51137,72863
52453,74687
53876,76544
55404,78541
57002,80627
58572,82410
60183,84065
61567,85485
62767,86554
63899,87381
64744,87889
65357,87939
65260,87581
65116,86638
65203,85972
67845,89293
73360,96745
79540,104386
83716,109712
86269,112731
87630,114090
88304,114674
88707,114921
89140,115218
89438,115492
89785,115677
90128,115920
90409,116061
90742,116254
91023,116445
91360,116614
91630,116823
91975,117054
92317,117248
92747,117511
93107,117744
93557,118041
93992,118315
94449,118610
95009,118940
95539,119258
96190,119631
96769,120073
97418,120392
98075,120819
98364,121125
98859,121488
99346,121827
99805,122064
100239,122378
100598,122564
100996,122802
101264,123010
101573,123175
101853,123344
102117,123489
102356,123622
102589,123746
102770,123855
102992,123938
103165,124066
103323,124136
103551,124247
103678,124347
103834,124348
104012,124493
104105,124577
104271,124627
104393,124726
104494,124743
104632,124828
104712,124887
104871,124927
104959,124998
105024,125032
105135,125095
105243,125184
105289,125172
105382,125258
105411,125281
105504,125296
105500,125344
105569,125322
105622,125369
105640,125328
105739,125382
105712,125396
105782,125357
105847,125411
105886,125407
105925,125417
105921,125393
105982,125406
105973,125422
106042,125366
106097,125391
106165,125353
106256,125413
106347,125422
106485,125453
106561,125504
106709,125484
106835,125598
106946,125579
107092,125660
108872,125882
108927,125880
108986,125878
109047,125845
109145,125861
109234,125888
109343,125925
109414,125938
109536,125951
110041,126052
110045,126002
110016,125955
109979,125884
109864,125819
109790,125751
109637,125640
109520,125579
109410,125455
109256,125401
109073,125270
108965,125176
108758,125118
108613,124988
108465,124927
108329,124813
108251,124761
108699,124936
108717,124979
108772,124985
108838,124998
108843,125024
108891,125048
108886,125043
108913,125043
108749,124960
108694,124944
108686,124947
108671,124917
108673,124903
108663,124918
108695,124901
108660,124927
108669,124914
108680,124912
108716,124915
108683,124921
108747,124940
108707,124929
108740,124919
108692,124912
108240,124567
108222,124574
108218,124555
108178,124523
108215,124549
108167,124529
108258,124546
108227,124565
108264,124562
108270,124571
108341,124575
108360,124579
108431,124610
108450,124627
108548,124648
108555,124700
108631,124703
108699,124737
108717,124723
108810,124780
108979,124856
109044,124874
109106,124905
109144,124917
109219,124927
109208,124936
109305,124993
109300,125022
109365,125020
109437,125068
109442,125042
109504,125049
109522,125115
109578,125085
109620,125148
109594,125135
109688,125137
109670,125186
109703,125148
109736,125168
109746,125152
109768,125179
109780,125161
109818,125202
109832,125195
109864,125203
109881,125250
109897,125189
109960,125225
109929,125266
109971,125226
110009,125268
109988,125218
110021,125253
110039,125290
110055,125246
110071,125289
110095,125291
110101,125298
110131,125287
110099,125315
110116,125279
110175,125314
110127,125316
110185,125293
110146,125335
110161,125289
110241,125355
110199,125316
110236,125331
110234,125311
110258,125311
110292,125379
110260,125347
110299,125349
110328,125373
110297,125361
110324,125392
110313,125372
110341,125384
110322,125359
110341,125347
110331,125403
110324,125361
110354,125397
110290,125346
110302,125355
110297,125376
110286,125310
110306,125353
110259,125312
110301,125333
110287,125312
110311,125344
110281,125354
110299,125309
110295,125337
110306,125305
110302,125318
110263,125308
110252,125267
110262,125303
110241,125266
110289,125286
110214,125315
110265,125259
110246,125309
110266,125257
110281,125288
110295,125316
110292,125291
110276,125284
110321,125320
110283,125314
110344,125309
110322,125320
110336,125305
110365,125359
110375,125336
110372,125344
110364,125317
110389,125317
110391,125349
110416,125321
110410,125378
110403,125343
110401,125356
110449,125372
110436,125354
110436,125396
110463,125342
110507,125401
110469,125371
110503,125349
110479,125398
110511,125359
110489,125386
110474,125351
110468,125359
110404,125327
110352,125278
110236,125240
110150,125146
109961,125046
109790,124956
109594,124824
109414,124746
109204,124641
109052,124500
108871,124454
108668,124321
108506,124211
108279,124116
108088,123947
107828,123907
107612,123761
107487,123679
107300,123615
107156,123487
107062,123483
106938,123410
106880,123377
106810,123355
106742,123284
106655,123271
106613,123209
106561,123256
106530,123185
106519,123225
106478,123160
106459,123172
106418,123141
106424,123141
106425,123175
106399,123126
106378,123144
106380,123148
106380,123127
106358,123119
106350,123165
106360,123133
106327,123119
106352,123105
106315,123130
106332,123079
106314,123142
106284,123070
106326,123111
106238,123082
106277,123055
106273,123110
106254,123055
106284,123078
106240,123064
106288,123090
106278,123078
106328,123101
106325,123123
106369,123095
106360,123158
106374,123104
106433,123177
106425,123165
106497,123187
106531,123234
106549,123200
106614,123258
106634,123252
106683,123256
106671,123301
106690,123272
106732,123292
106713,123286
106739,123307
106702,123288
106689,123262
106715,123246
106690,123253
106641,123218
106645,123235
106605,123184
106613,123190
106589,123214
106539,123142
106575,123144
106505,123166
106503,123148
106538,123140
106482,123103
106474,123141
106448,123105
106459,123102
106471,123110
106409,123089
106449,123070
106420,123098
106399,123066
106417,123082
106396,123099
106394,123060
106389,123074
106422,123049
106401,123093
106380,123036
106409,123050
106392,123061
106399,123072
106396,123071
106414,123068
106407,123074
106439,123062
106429,123104
106417,123044
106455,123094
106438,123096
106437,123070
106482,123112
106440,123070
106489,123099
106444,123089
106500,123088
106462,123136
106480,123071
106530,123102
106497,123129
106544,123089
106561,123109
106545,123125
106538,123118
106634,123130
106583,123148
106603,123128
106660,123175
106639,123142
106689,123159
106691,123199
106728,123179
106777,123212
106767,123203
106854,123250
106848,123264
106903,123262
106925,123312
106938,123283
106945,123314
106984,123307
107022,123314
107087,123358
107069,123306
107113,123373
107100,123364
107165,123380
107136,123413
107199,123395
107201,123396
107200,123394
107273,123424
107260,123443
107273,123412
107303,123457
107320,123427
107334,123444
107344,123461
107324,123452
107388,123438
107399,123499
107408,123478
107441,123493
107445,123485
107483,123485
107500,123569
107520,123531
107602,123569
107578,123566
107620,123568
107659,123594
107660,123604
107726,123633
107740,123606
107765,123626
107756,123646
107783,123632
107821,123688
107834,123668
107864,123713
107880,123690
107921,123698
107952,123768
107981,123749
108059,123759
108073,123835
108106,123795
108166,123831
108242,123889
108242,123888
108316,123921
108382,123942
108388,123945
108458,123985
108478,124012
108546,123979
108598,124076
108597,124012
108653,124090
108662,124068
108764,124136
108774,124163
108841,124148
108898,124195
108914,124203
108944,124220
109021,124274
109083,124310
109086,124302
109175,124314
109237,124388
109233,124340
109304,124408
109320,124430
109399,124407
109408,124481
109450,124440
109514,124513
109530,124476
109593,124514
109576,124518
109645,124538
109668,124547
109684,124560
109757,124615
109801,124616
109814,124600
109861,124626
109884,124652
109863,124661
109912,124661
109914,124678
109931,124639
109934,124674
109902,124643
109922,124630
109856,124627
109790,124544
109740,124522
109574,124440
109394,124299
109181,124199
108932,124067
108746,123942
108531,123819
108402,123752
108250,123679
108102,123550
107907,123484
107809,123383
107644,123353
107515,123232
107454,123242
107338,123188
107300,123130
107300,123143
107231,123110
107204,123107
107237,123115
107229,123131
107239,123120
107293,123128
107304,123183
107325,123178
107417,123207
107421,123259
107468,123231
107499,123307
107556,123293
107626,123348
107637,123343
107752,123356
107749,123427
107792,123436
107841,123444
107885,123467
107955,123483
107961,123498
107999,123525
108004,123509
108068,123548
108045,123572
108094,123556
108147,123603
108124,123596
108184,123598
108173,123626
108226,123597
108287,123663
108263,123670
108331,123686
108367,123689
108366,123745
108441,123760
108490,123759
108517,123825
108547,123770
108576,123844
108545,123814
108621,123848
108590,123865
108615,123847
108623,123817
108654,123862
108578,123825
108605,123813
108571,123821
108576,123782
108531,123775
108516,123795
108490,123758
108440,123738
108398,123687
108438,123673
108361,123698
108311,123628
108359,123659
108304,123622
108302,123591
108256,123632
108272,123580
108251,123595
108233,123564
108221,123570
108230,123565
108239,123553
108232,123583
108231,123557
108281,123581
108235,123599
108230,123549
108306,123612
108266,123588
108329,123595
108312,123629
108352,123605
108385,123659
108392,123662
108470,123664
108490,123738
108508,123701
108592,123766
108608,123748
108652,123780
108681,123802
108735,123833
108778,123834
108840,123890
108847,123892
108909,123938
108957,123949
108959,123972
109044,124003
109071,123998
109123,124016
109115,124039
109198,124070
109214,124070
109249,124098
109280,124101
109303,124090
109322,124126
109357,124141
109365,124143
109403,124161
109386,124144
109442,124184
109438,124153
109454,124183
109465,124189
109489,124202
109549,124205
109505,124212
109575,124210
109583,124241
109592,124230
109624,124245
109634,124270
109641,124271
109656,124290
109680,124269
109714,124308
109730,124281
109761,124319
109750,124305
109795,124319
109785,124354
109777,124310
109843,124349
109807,124322
109873,124334
109873,124398
109885,124328
109893,124364
109920,124362
109893,124385
109958,124402
109938,124398
109971,124397
110013,124404
109980,124389
110021,124407
110035,124437
110051,124399
110067,124432
110051,124404
110103,124445
110088,124449
110100,124422
110103,124462
110115,124426
110111,124447
110111,124428
110186,124495
110175,124465
110174,124483
110195,124436
110196,124474
110197,124482
110235,124484
110214,124517
110240,124463
110295,124505
110265,124470
110292,124507
110308,124503
110269,124501
110284,124474
110309,124513
110351,124509
110313,124490
110350,124503
110363,124517
110379,124529
110368,124538
110410,124512
110401,124550
110394,124521
110459,124564
110422,124568
110442,124530
110470,124570
110437,124559
110482,124546
110470,124584
110501,124561
110480,124524
110519,124552
110518,124565
110495,124571
110531,124596
110516,124565
110557,124553
110550,124618
110536,124566
110590,124588
110561,124623
110581,124577
110626,124612
110586,124581
110603,124590
110597,124590
110635,124577
110622,124616
110664,124620
110623,124622
110648,124616
110692,124610
110648,124631
110643,124604
110689,124625
110637,124619
110639,124573
110589,124562
110545,124497
110458,124475
110320,124405
110203,124306
110083,124238
109857,124108
109651,123992
109451,123879
109223,123766
109105,123680
108964,123641
108793,123510
108725,123469
108568,123409
108437,123322
108359,123295
108206,123204
108147,123158
108054,123149
108027,123086
107941,123116
107908,123040
107927,123059
107893,123047
107887,123046
107860,123031
107892,123023
107878,123074
107885,123015
107937,123081
107902,123102
107953,123053
107988,123125
107963,123108
108013,123116
108039,123155
108032,123127
108069,123163
108068,123181
108125,123168
108114,123191
108145,123213
108114,123184
108159,123215
108203,123201
108186,123247
108228,123213
108227,123221
108216,123228
108270,123256
108315,123272
108299,123269
108354,123297
108346,123352
108384,123326
108479,123356
108471,123366
108524,123387
108579,123385
108618,123461
108656,123471
108712,123479
108784,123520
108775,123513
108837,123528
108861,123601
108886,123549
108921,123591
108909,123598
108973,123591
108942,123636
108971,123597
109010,123627
108988,123593
109015,123631
109004,123620
109010,123654
109013,123616
108995,123618
108964,123619
108968,123591
108973,123613
108942,123568
108959,123591
108936,123604
108955,123561
108931,123608
108927,123544
108978,123573
108911,123590
108947,123550
108962,123590
108962,123562
109006,123616
109004,123616
109032,123621
109068,123622
109139,123696
109154,123651
109195,123705
109209,123728
109255,123724
109305,123732
109317,123770
109365,123754
109419,123816
109408,123792
109487,123821
109495,123868
109529,123873
109545,123896
109594,123892
109612,123886
109651,123925
109665,123950
109674,123897
109710,123946
109706,123961
109740,123949
109756,123974
109769,123952
109774,123996
109746,123973
109832,124002
109803,123988
109855,124026
109860,124003
109864,123997
109875,124009
109908,124021
109894,124048
109918,124044
109978,124040
109931,124060
109946,124028
109999,124076
109963,124055
110022,124066
110001,124079
110033,124060
110052,124104
110024,124063
110090,124109
110066,124106
110079,124102
110089,124119
110091,124099
110146,124112
110117,124151
110150,124116
110164,124102
110160,124141
110146,124111
110187,124134
110163,124142
110216,124111
110183,124164
110194,124108
110240,124144
110220,124170
110186,124131
110229,124154
110235,124153
110230,124149
110236,124133
110246,124172
110257,124151
110299,124164
110267,124161
110299,124148
110273,124211
110280,124134
110331,124205
110326,124152
110352,124183
110350,124164
110376,124207
110370,124194
110369,124195
110392,124192
110366,124196
110381,124226
110393,124201
110446,124209
110403,124233
110444,124207
110461,124260
110455,124206
110460,124229
110468,124252
110481,124221
110508,124248
110476,124238
110539,124232
110494,124246
110513,124244
110518,124249
110522,124238
110549,124259
110530,124258
110545,124237
110537,124214
110570,124282
110525,124253
110577,124245
110567,124276
110560,124224
110611,124264
110598,124280
110610,124240
110610,124267
110583,124254
110637,124280
110628,124272
110606,124270
110605,124265
110644,124298
110682,124279
110628,124295
110657,124258
110681,124307
110657,124246
110677,124291
110695,124301
110699,124276
110703,124302
110677,124318
110707,124262
110712,124277
110704,124312
110715,124279
110723,124320
110725,124284
110698,124293
110739,124314
110747,124315
110735,124300
110759,124299
110756,124333
110761,124284
110782,124303
110755,124269
110800,124334
110754,124308
110791,124294
110770,124322
110788,124284
110780,124300
110762,124306
110772,124293
110772,124267
110740,124240
110659,124231
110546,124155
110454,124066
110304,124013
110138,123885
110007,123822
109792,123723
109615,123591
109409,123499
109232,123375
109123,123323
109003,123289
108907,123195
108777,123149
108704,123135
108637,123060
108555,123038
108458,122962
108447,122987
108341,122956
108360,122920
108331,122956
108336,122916
108317,122939
108330,122938
108302,122950
108330,122916
108383,122983
108371,122969
108403,122991
108446,122994
108479,123001
108492,123022
108552,123067
108523,123084
108581,123084
108641,123121
108635,123099
108656,123123
108671,123156
108699,123117
108714,123154
108700,123138
108776,123180
108750,123213
108761,123148
108815,123198
108835,123224
108813,123185
108881,123219
108873,123256
108934,123286
108945,123263
109022,123293
109062,123366
109098,123346
109196,123401
109189,123431
109271,123404
109326,123488
109352,123489
109416,123524
109427,123531
109496,123558
109529,123574
109551,123595
109596,123581
109640,123636
109622,123650
109661,123624
109670,123648
109672,123616
109675,123646
109657,123650
109686,123621
109708,123629
109674,123654
109665,123598
109716,123644
109654,123600
109665,123609
109665,123620
109652,123594
109670,123634
109661,123587
109634,123611
109624,123544
109672,123601
109628,123619
109675,123594
109697,123633
109676,123589
109709,123608
109714,123609
109779,123628
109753,123687
109794,123632
109812,123686
109830,123687
109846,123676
109869,123699
109886,123726
109905,123725
109927,123711
109958,123750
109940,123744
109987,123751
109995,123760
110014,123737
110031,123813
110014,123798
110096,123788
110062,123828
110068,123768
110134,123845
110112,123823
110124,123815
110163,123807
110141,123856
110189,123868
110160,123837
110224,123858
110186,123875
110208,123857
110227,123870
110237,123867
110273,123892
110239,123885
110262,123868
110293,123921
110290,123872
110333,123918
110286,123891
110328,123934
110324,123922
110362,123940
110346,123919
110370,123903
110338,123933
110392,123949
110381,123919
110390,123946
110400,123936
110405,123940
110440,123943
110396,123945
110447,123972
110445,123984
110435,123982
110422,123977
110434,123962
110449,123967
110477,123975
110460,123960
110488,123969
110472,123944
110493,123992
110506,123964
110480,123982
110474,123998
110516,123964
110505,124005
110538,123980
110513,124008
110543,123972
110536,124005
110545,123967
110540,124009
110555,123985
110575,123981
110533,123990
110583,124005
110593,124012
110543,124005
110597,123971
110594,124023
110598,123966
110621,124002
110572,123996
110613,123995
110620,124038
110600,123979
110643,123976
110604,124026
110641,124016
110649,124017
110642,123990
110612,124013
110671,124011
110663,124048
110649,123985
110669,124047
110653,124036
110701,124029
110687,124054
110673,123985
110718,124036
110672,124024
110707,124022
110700,124045
110696,124034
110703,124011
110676,124026
110718,124021
110713,124037
110758,124032
110708,124024
110745,123995
110746,124054
110733,124033
110761,124031
110744,124055
110738,123997
110789,124067
110725,124028
110750,124023
110772,124041
110770,124024
110780,124053
110782,124038
110768,124029
110777,124026
110815,124040
110777,124028
110781,124045
110827,124038
110788,124035
110801,124008
110829,124074
110808,124046
110826,124030
110820,124065
110801,124023
110856,124056
110822,124072
110821,124027
110844,124034
110840,124051
110857,124047
110828,124028
110875,124065
110848,124048
110866,124019
110868,124084
110851,124024
110897,124079
110836,124027
110871,124041
110866,124030
110879,124044
110867,124025
110901,124046
110881,124072
110884,124047
110913,124046
110863,124020
110902,124014
110894,124058
110840,124034
110840,124002
110790,124010
110728,123917
110655,123901
110507,123798
110389,123737
110229,123644
110125,123547
109981,123508
109837,123411
109802,123384
109656,123315
109574,123285
109516,123222
109462,123208
109430,123189
109373,123200
109345,123165
109389,123163
109359,123207
109353,123147
109396,123212
109347,123203
109411,123195
109445,123251
109438,123236
109488,123265
109529,123299
109557,123292
109595,123297
109595,123364
109658,123348
109647,123383
109704,123411
109711,123393
109778,123407
109765,123455
109778,123416
109809,123458
109832,123466
109855,123458
109830,123454
109870,123442
109867,123498
109871,123455
109905,123478
109907,123488
109896,123503
109961,123497
109995,123556
109987,123501
110046,123539
110011,123573
110064,123551
110118,123598
110100,123563
110153,123603
110157,123644
110169,123594
110195,123624
110174,123605
110230,123646
110191,123668
110237,123645
110231,123638
110213,123670
110224,123636
110218,123640
110205,123644
110193,123618
110225,123634
110167,123622
110188,123590
110166,123626
110145,123587
110152,123586
110128,123581
110137,123556
110093,123586
110083,123533
110105,123542
110119,123553
110071,123536
110104,123521
110097,123559
110068,123507
110089,123543
110078,123546
110097,123552
110109,123544
110089,123572
110107,123529
110148,123580
110142,123583
110174,123559
110158,123605
110169,123568
110219,123594
110221,123621
110195,123599
110247,123582
110265,123619
110257,123651
110296,123631
110311,123671
110291,123616
110349,123650
110313,123700
110355,123658
110361,123706
110361,123670
110407,123712
110372,123660
110396,123709
110430,123692
110425,123718
110436,123708
110467,123727
110441,123715
110449,123685
110465,123737
110463,123713
110507,123733
110485,123741
110517,123710
110522,123752
110497,123752
110562,123734
110533,123767
110537,123714
110583,123780
110549,123769
110572,123751
110534,123770
110589,123760
110622,123767
110595,123794
110573,123759
110615,123805
110592,123760
110636,123793
110583,123788
110608,123816
110612,123775
110653,123800
110620,123811
110631,123770
110670,123808
110652,123802
110670,123776
110660,123811
110652,123803
110677,123833
110672,123801
110719,123781
110644,123797
110675,123794
110697,123829
110701,123797
110731,123822
110690,123799
110729,123806
110714,123823
110680,123827
110708,123812
110735,123844
110731,123798
110715,123830
110708,123832
110742,123826
110739,123830
110725,123810
110785,123834
110770,123859
110747,123782
110764,123848
110744,123801
110796,123823
110772,123837
110761,123785
110781,123835
110765,123839
110809,123828
110780,123841
110796,123854
110809,123858
110787,123834
110824,123859
110834,123848
110827,123851
110819,123832
110822,123845
110815,123827
110865,123825
110805,123865
110828,123813
110868,123846
110841,123839
110851,123848
110844,123864
110870,123856
110851,123848
110844,123863
110862,123852
110891,123835
110876,123870
110839,123840
110875,123825
110874,123856
110877,123820
110868,123871
110882,123846
110920,123874
110869,123887
110863,123842
110916,123848
110901,123840
110927,123860
110890,123867
110902,123852
110918,123850
110883,123870
110917,123842
110921,123902
110922,123852
110944,123863
110900,123852
110938,123851
110919,123876
110917,123834
110950,123869
110920,123882
110943,123836
110954,123881
110933,123826
110930,123847
110939,123838
110919,123850
110947,123891
110945,123835
110975,123839
110933,123865
110951,123838
110989,123882
110964,123842
110982,123849
110956,123865
110956,123843
110991,123879
110963,123844
110985,123852
110941,123900
110976,123857
110962,123863
110991,123840
110966,123860
111001,123853
111011,123861
110977,123862
111000,123845
111011,123885
110977,123847
111029,123882
110981,123862
110989,123863
110959,123834
110950,123879
110968,123830
111009,123853
110933,123810
110899,123774
110847,123736
110706,123676
110604,123577
110418,123501
110242,123399
110129,123339
109964,123248
109865,123148
109720,123141
109609,123046
109575,123033
109431,122983
109390,122926
109290,122900
109281,122877
109219,122897
109199,122868
109217,122880
109206,122865
109192,122876
109211,122871
109211,122899
109201,122884
109273,122910
109269,122945
109288,122920
109354,122971
109348,122981
109393,122984
109436,123057
109463,123018
109506,123057
109491,123049
109550,123088
109562,123095
109554,123119
109598,123121
109629,123112
109677,123133
109633,123145
109659,123141
109709,123166
109692,123128
109672,123148
109721,123166
109700,123182
109736,123177
109775,123216
109764,123185
109788,123182
109820,123219
109827,123226
109859,123239
109873,123270
109924,123265
109929,123312
109908,123271
110011,123326
109975,123318
110024,123308
110027,123354
110028,123297
110059,123353
110040,123342
110086,123326
110035,123364
110066,123335
110078,123372
110065,123336
110076,123365
110050,123343
110048,123330
110071,123304
110043,123354
110009,123302
110042,123324
110002,123332
109991,123273
109988,123303
109947,123251
109971,123271
109949,123269
109961,123232
109945,123264
109933,123251
109940,123260
109952,123279
109946,123268
109974,123259
109993,123292
109949,123278
110010,123262
109951,123325
110002,123276
110017,123334
110010,123282
110072,123310
110041,123349
110054,123307
110122,123369
110103,123343
110142,123365
110159,123368
110171,123401
110161,123363
110194,123393
110215,123390
110228,123438
110215,123409
110271,123433
110254,123448
110287,123406
110292,123461
110285,123417
110338,123465
110308,123459
110365,123447
110323,123464
110368,123453
110369,123466
110417,123474
110388,123486
110413,123490
110398,123477
110423,123507
110420,123476
110453,123523
110455,123472
110455,123511
110450,123498
110476,123500
110500,123499
110479,123515
110512,123521
110510,123523
110519,123520
110506,123514
110535,123502
110563,123541
110559,123542
110544,123554
110577,123543
110563,123545
110576,123538
110582,123548
110584,123548
110572,123560
110583,123540
110604,123561
110602,123552
110643,123599
110601,123545
110624,123560
110640,123559
110642,123561
110639,123586
110654,123546
110630,123587
110659,123553
110647,123602
110646,123568
110683,123561
110658,123605
110673,123556
110700,123603
110664,123560
110708,123581
110704,123588
110646,123599
110698,123551
110725,123598
110700,123571
110704,123585
110730,123595
110694,123603
110705,123559
110761,123624
110704,123592
110738,123585
110750,123630
110739,123607
110754,123597
110748,123626
110773,123585
110760,123640
110749,123585
110816,123619
110761,123600
110769,123597
110791,123615
110793,123615
110806,123617
110788,123619
110812,123610
110832,123647
110789,123649
110825,123591
110825,123653
110778,123594
110837,123628
110809,123640
110841,123594
110841,123661
110798,123613
110866,123632
110847,123635
110820,123607
110884,123621
110807,123633
110866,123627
110893,123670
110855,123597
110865,123638
110863,123639
110921,123636
110858,123684
110862,123612
110900,123658
110862,123628
110866,123627
110914,123662
110873,123628
110900,123650
110895,123632
110882,123624
110934,123640
110891,123643
110894,123625
110910,123685
110900,123637
110925,123641
110895,123690
110900,123630
110947,123660
110896,123650
110944,123634
110937,123675
110923,123629
110949,123669
110936,123632
110950,123649
110952,123635
110955,123666
110943,123637
110964,123634
110944,123638
110966,123635
110968,123664
110960,123628
110979,123647
110953,123656
110956,123626
110975,123677
110964,123609
110979,123642
110956,123655
110975,123629
110978,123643
110994,123613
110995,123663
110963,123660
110996,123650
110979,123670
110980,123608
111003,123647
110948,123623
110966,123641
110960,123620
110955,123623
110910,123586
110947,123622
110865,123581
110813,123513
110774,123547
110677,123476
110601,123402
110504,123338
110406,123302
110323,123239
110249,123229
110155,123161
110151,123160
110102,123184
110087,123119
110128,123165
110073,123130
110144,123159
110144,123198
110174,123166
110178,123238
110174,123190
110234,123232
110247,123245
110293,123279
110300,123275
110350,123273
110334,123308
110365,123276
110401,123334
110396,123326
110468,123337
110449,123384
110449,123322
110483,123398
110470,123353
110510,123371
110501,123395
110546,123364
110517,123406
110552,123404
110528,123381
110548,123400
110585,123418
110580,123410
110597,123412
110571,123460
110592,123407
110647,123444
110626,123430
110655,123466
110652,123436
110674,123421
110659,123463
110659,123435
110700,123472
110683,123457
110683,123467
110691,123478
110706,123470
110700,123485
110697,123439
110732,123494
110691,123468
110746,123481
110709,123503
110748,123460
110737,123494
110744,123438
110761,123489
110721,123521
110754,123468
110752,123494
110751,123475
110747,123482
110753,123487
110738,123480
110727,123486
110756,123502
110728,123464
110791,123461
110731,123510
110742,123452
110780,123490
110743,123484
110789,123469
110762,123473
110787,123467
110771,123537
110748,123471
110798,123492
110778,123485
110780,123519
110814,123477
110835,123497
110793,123507
110799,123491
110851,123528
110811,123489
110807,123520
110850,123503
110837,123545
110814,123506
110873,123519
110854,123547
110846,123503
110885,123519
110840,123539
110857,123517
110866,123539
110871,123479
110871,123523
110890,123528
110873,123514
110866,123540
110897,123513
110871,123566
110863,123515
110918,123534
110870,123532
110897,123505
110898,123567
110884,123514
110895,123547
110897,123546
110910,123538
110908,123535
110896,123552
110930,123555
110910,123558
110918,123505
110917,123563
110905,123512
110969,123551
110924,123546
110931,123512
110957,123543
110948,123508
110956,123566
110926,123549
110950,123519
110941,123564
110940,123530
110971,123540
110969,123544
110960,123524
110994,123555
110934,123525
110983,123541
110958,123543
110979,123538
110998,123590
110946,123540
110991,123561
111003,123587
110988,123536
111025,123567
110986,123569
111002,123551
111007,123590
111024,123579
111000,123545
111016,123553
111002,123576
111006,123556
111031,123575
110988,123556
111037,123546
111021,123597
111019,123548
111070,123585
111002,123573
111042,123561
111031,123556
111047,123581
111045,123556
111062,123574
111041,123558
111020,123572
111044,123571
111019,123576
111035,123553
111076,123582
111028,123573
111077,123552
111050,123622
111041,123551
111093,123593
111030,123569
111066,123577
111057,123569
111072,123548
111057,123611
111041,123579
111084,123586
111056,123571
111081,123594
111056,123607
111076,123595
111068,123566
111087,123603
111072,123579
111077,123555
111081,123607
111056,123552
111108,123571
111080,123589
111066,123534
111111,123593
111075,123592
111092,123562
111100,123591
111084,123587
111093,123589
111080,123567
111092,123578
111124,123578
111084,123571
111099,123587
111100,123565
111087,123571
111119,123589
111107,123577
111127,123581
111118,123592
111103,123569
111130,123571
111070,123562
111122,123591
111130,123576
111107,123589
111110,123601
111117,123558
111113,123585
111127,123576
111119,123578
111151,123576
111111,123585
111133,123571
111113,123584
111104,123569
111154,123612
111131,123567
111158,123596
111119,123563
111176,123593
111149,123598
111131,123596
111144,123582
111158,123591
111120,123583
111144,123610
111151,123557
111157,123604
111144,123572
111127,123581
111108,123603
111110,123533
111113,123576
111066,123528
111071,123513
110984,123522
110925,123434
110884,123400
110793,123351
110700,123309
110633,123284
110591,123267
110500,123227
110434,123141
110395,123171
110337,123111
110366,123130
110348,123146
110312,123145
110369,123152
110325,123170
110391,123143
110410,123208
110392,123158
110447,123196
110462,123200
110493,123200
110502,123257
110548,123261
110508,123241
110571,123263
110566,123274
110595,123238
110621,123309
110604,123297
110651,123272
110622,123317
110630,123276
110672,123343
110667,123307
110681,123330
110676,123320
110705,123353
110699,123318
110732,123332
110713,123361
110714,123349
110754,123353
110746,123363
110761,123364
110754,123391
110750,123334
110799,123362
110761,123404
110787,123360
110832,123423
110800,123374
110826,123367
110809,123409
110830,123395
110816,123386
110835,123399
110865,123416
110859,123415
110850,123420
110887,123389
110846,123427
110874,123387
110869,123443
110868,123405
110892,123418
110865,123410
110883,123424
110897,123424
110870,123419
110897,123447
110904,123433
110873,123440
110907,123440
110898,123406
110863,123436
110913,123443
110890,123428
110895,123430
110906,123439
110903,123421
110912,123436
110885,123411
110892,123437
110917,123421
110894,123414
110912,123452
110945,123406
110930,123411
110924,123424
110911,123447
110968,123436
110948,123455
110949,123468
110942,123403
110961,123451
110932,123460
110980,123415
110958,123462
110937,123433
111003,123483
110961,123460
110983,123433
110973,123478
110970,123463
110979,123471
111028,123474
110984,123478
111006,123463
111001,123469
111008,123448
111005,123481
111027,123458
110982,123457
111013,123460
110999,123467
111038,123487
111004,123463
111042,123478
111024,123460
111047,123471
110997,123469
111054,123463
111022,123464
111043,123457
111024,123490
111039,123463
111065,123475
111045,123479
111089,123476
111036,123486
111054,123483
111059,123499
111061,123473
111028,123451
111082,123485
111055,123495
111072,123465
111077,123465
111077,123466
111080,123474
111061,123453
111089,123454
111090,123497
111050,123489
111087,123458
111069,123513
111060,123454
111097,123478
111074,123475
111105,123459
111095,123495
111067,123446
111105,123477
111062,123484
111098,123459
111102,123531
111089,123480
111111,123469
111085,123498
111115,123491
111067,123476
111133,123481
111095,123473
111145,123492
111106,123516
111101,123465
111139,123480
111086,123499
111121,123466
111130,123505
111104,123452
111129,123482
111123,123492
111129,123473
111122,123498
111133,123483
111154,123506
111112,123495
111142,123485
111118,123490
111153,123465
111147,123525
111113,123463
111162,123511
111118,123488
111157,123466
111142,123499
111157,123497
111170,123501
111131,123499
111152,123470
111135,123496
111132,123504
111139,123486
111185,123503
111169,123525
111181,123482
111174,123534
111143,123474
111190,123495
111120,123522
111188,123474
111190,123512
111170,123459
111180,123516
111159,123503
111206,123487
111175,123510
111179,123501
111175,123473
111186,123474
111159,123475
111161,123507
111202,123483
111171,123498
111198,123468
111177,123512
111153,123465
111218,123483
111182,123507
111154,123449
111194,123484
111185,123492
111186,123456
111165,123504
111197,123481
111184,123495
111173,123470
111186,123489
111149,123460
111193,123452
111213,123488
111182,123452
111208,123489
111153,123463
111216,123446
111178,123484
111164,123442
111227,123473
111195,123476
111189,123462
111202,123449
111187,123467
111236,123460
111187,123469
111227,123449
111223,123473
111180,123474
111198,123443
111230,123481
111180,123436
111219,123469
111196,123481
111215,123440
111213,123478
111185,123418
111206,123469
111172,123471
111196,123442
111169,123432
111155,123451
111142,123448
111139,123410
111107,123398
111063,123354
110964,123348
110923,123285
110901,123282
110781,123179
110742,123178
110665,123195
110642,123127
110612,123154
110563,123107
110564,123078
110511,123127
110540,123079
110536,123096
110550,123134
110587,123106
110560,123098
110591,123113
110640,123187
110614,123133
110666,123141
110635,123166
110664,123179
110699,123155
110741,123208
110687,123208
110737,123210
110749,123262
110760,123201
110790,123235
110770,123246
110782,123232
110794,123238
110788,123258
110800,123246
110850,123285
110817,123212
110841,123258
110823,123278
110870,123251
110870,123301
110850,123244
110889,123291
110841,123273
110892,123282
110878,123302
110889,123253
110903,123299
110876,123270
110918,123276
110896,123300
110925,123306
110915,123297
110929,123305
110917,123307
110935,123272
110917,123346
110893,123289
110965,123307
110942,123333
110928,123283
110972,123334
110945,123320
110974,123323
110974,123322
110958,123305
110930,123319
110972,123306
110939,123296
110976,123294
110962,123341
110938,123281
110995,123329
110947,123299
110940,123318
110982,123307
110975,123342
110940,123329
110988,123307
110969,123352
110948,123288
111005,123348
110980,123322
110972,123323
111003,123310
110991,123336
110973,123286
111020,123319
111001,123356
110992,123315
111022,123353
110989,123314
111014,123323
111012,123343
111013,123324
111026,123375
111033,123313
111074,123367
111014,123343
111059,123341
111052,123349
111015,123368
111038,123380
111025,123316
111084,123357
111033,123388
111061,123347
111095,123371
111054,123344
111081,123353
111076,123378
111069,123340
111080,123365
111078,123336
111122,123372
111062,123380
111076,123368
111088,123346
111076,123364
111107,123381
111104,123357
111120,123372
111090,123358
111123,123378
111099,123384
111092,123385
111104,123354
111116,123375
111107,123350
111122,123351
111103,123398
111094,123340
111141,123393
111110,123375
111106,123397
111139,123367
111142,123401
111122,123370
111163,123383
111129,123396
111130,123343
111157,123401
111139,123380
111163,123408
111143,123405
111170,123370
111151,123422
111156,123372
111156,123407
111174,123393
111151,123389
111125,123401
111131,123380
111172,123392
111171,123374
111172,123422
111134,123396
111174,123411
111165,123414
111188,123377
111164,123434
111145,123399
111212,123431
111132,123395
111177,123380
111170,123431
111175,123373
111183,123391
111199,123405
111183,123400
111220,123410
111160,123404
111215,123397
111208,123410
111192,123379
111226,123412
111189,123413
111204,123401
111213,123435
111201,123387
111220,123405
111205,123438
111245,123398
111206,123426
111217,123404
111218,123416
111245,123421
111213,123401
111206,123411
111249,123416
111221,123446
111214,123399
111261,123433
111212,123423
111226,123389
111240,123455
111194,123398
111254,123432
111246,123431
111214,123425
111240,123408
111275,123424
111220,123410
111234,123403
111259,123426
111256,123409
111244,123417
111240,123449
111223,123412
111292,123422
111252,123450
111228,123401
111276,123473
111245,123422
111277,123404
111243,123421
111247,123391
111241,123446
111247,123426
111284,123424
111263,123432
111264,123409
111257,123449
111292,123410
111268,123438
111260,123394
111307,123446
111237,123411
111267,123388
111279,123440
111237,123402
111275,123405
111251,123418
111275,123392
111284,123442
111254,123395
111295,123422
111277,123394
111289,123426
111276,123417
111267,123438
111265,123392
111284,123425
111252,123406
111329,123418
111287,123435
111282,123396
111273,123418
111303,123436
111290,123451
111260,123411
111293,123418
111282,123430
111285,123431
111284,123401
111286,123393
111295,123406
111251,123412
111227,123366
111252,123408
111165,123368
111150,123292
111003,123281
110895,123154
110786,123127
110610,123038
110497,122941
110383,122911
110266,122828
110239,122827
110158,122781
110134,122786
110101,122746
110113,122775
110089,122754
110131,122790
110094,122765
110139,122778
110147,122817
110144,122811
110215,122837
110215,122866
110279,122865
110320,122931
110319,122910
110385,122920
110378,122966
110425,122949
110445,122976
110499,122981
110506,122995
110525,123006
110514,123052
110510,122996
110556,123067
110544,123042
110564,123044
110596,123054
110573,123050
110614,123059
110608,123099
110631,123060
110656,123113
110636,123063
110714,123115
110685,123125
110697,123107
110713,123129
110706,123107
110762,123141
110701,123139
110756,123146
110751,123174
110760,123119
110771,123151
110768,123176
110833,123141
110801,123213
110775,123147
110830,123183
110788,123151
110826,123189
110821,123131
110821,123169
110833,123176
110819,123154
110822,123142
110854,123134
110820,123176
110854,123147
110821,123176
110789,123125
110864,123151
110783,123180
110815,123158
110834,123174
110784,123104
110809,123142
110766,123139
110802,123105
110773,123116
110789,123142
110747,123122
110747,123102
110746,123089
110740,123129
110742,123075
110764,123126
110725,123056
110722,123089
110748,123125
110726,123100
110732,123063
110793,123128
110752,123100
110785,123093
110773,123109
110795,123124
110779,123142
110798,123110
110832,123123
110797,123139
110837,123140
110829,123137
110826,123147
110830,123140
110865,123146
110843,123151
110867,123169
110863,123150
110890,123163
110885,123169
110868,123151
110910,123183
110911,123167
110901,123171
110918,123180
110930,123205
110924,123176
110952,123178
110940,123182
110917,123173
110957,123202
110945,123200
110981,123169
110946,123197
110951,123203
110937,123163
110992,123217
110955,123194
110971,123184
110976,123217
110979,123200
110964,123224
110999,123173
110976,123215
110969,123207
110963,123230
111014,123206
110999,123241
110989,123195
111007,123234
110971,123203
111016,123218
111013,123226
110998,123180
111019,123230
110974,123186
111015,123207
111025,123217
111008,123213
111050,123224
111014,123245
111027,123190
111059,123241
111018,123212
111047,123221
111007,123241
111051,123207
111035,123255
111027,123159
111062,123228
111025,123233
111049,123243
111023,123229
111017,123247
111058,123213
111079,123221
111043,123232
111059,123233
111024,123201
111084,123210
111043,123252
111067,123194
111076,123240
111049,123218
111070,123233
111083,123258
111082,123207
111091,123236
111065,123216
111099,123236
111061,123255
111080,123222
111107,123234
111075,123257
111095,123230
111106,123225
111062,123229
111098,123247
111098,123219
111087,123268
111091,123198
111116,123251
111089,123231
111133,123222
111111,123265
111093,123210
111140,123263
111115,123276
111127,123225
111121,123237
111117,123242
111149,123245
111131,123233
111100,123228
111125,123246
111121,123278
111131,123230
111152,123260
111131,123226
111142,123240
111111,123254
111138,123256
111127,123218
111140,123231
111147,123279
111145,123252
111150,123271
111161,123206
111122,123263
111176,123236
111178,123224
111149,123289
111148,123220
111173,123285
111147,123228
111172,123230
111162,123274
111189,123246
111175,123297
111146,123240
111210,123280
111143,123249
111178,123236
111165,123270
111143,123256
111163,123230
111105,123234
111087,123193
110934,123127
110820,123011
110662,122963
110471,122853
110320,122754
110145,122688
109986,122562
109890,122559
109748,122476
109673,122393
109528,122370
109428,122282
109343,122266
109269,122233
109205,122175
109149,122206
109073,122118
109093,122139
108999,122110
108994,122076
108967,122106
108936,122049
108926,122105
108936,122092
108996,122109
109022,122112
108979,122158
109025,122131
109086,122178
109106,122187
109115,122213
109190,122237
109186,122257
109256,122270
109334,122334
109350,122334
109381,122360
109414,122372
109457,122385
109501,122436
109523,122430
109592,122463
109572,122466
109616,122465
109643,122527
109690,122523
109715,122548
109742,122556
109793,122560
109768,122556
109777,122589
109860,122600
109811,122599
109875,122594
109906,122649
109886,122621
109951,122653
109929,122662
109972,122653
109976,122684
109968,122672
110032,122695
110001,122676
110017,122665
110003,122683
110023,122710
110015,122669
109985,122652
110013,122678
109973,122631
109970,122657
109956,122645
109925,122657
109899,122598
109873,122613
109890,122593
109873,122620
109824,122561
109836,122589
109768,122542
109798,122532
109762,122545
109764,122549
109751,122520
109766,122572
109744,122518
109789,122539
109735,122548
109750,122511
109806,122569
109768,122553
109795,122550
109789,122573
109831,122536
109840,122605
109842,122558
109884,122601
109847,122605
109908,122636
109922,122631
109935,122641
109974,122680
109970,122658
110002,122678
110002,122692
110000,122658
110049,122703
110013,122696
110053,122685
110056,122741
110093,122701
110108,122758
110093,122721
110128,122719
110112,122769
110137,122758
110168,122746
110170,122731
110150,122761
110203,122769
110182,122794
110215,122760
110220,122797
110187,122747
110234,122785
110261,122801
110202,122758
110264,122770
110240,122830
110241,122788
110304,122806
110256,122817
110288,122808
110288,122818
110313,122847
110332,122835
110330,122830
110320,122839
110371,122851
110359,122848
110382,122821
110341,122874
110352,122832
110426,122875
110373,122864
110416,122841
110398,122880
110407,122874
110416,122849
110447,122853
110450,122871
110434,122891
110452,122873
110433,122898
110451,122880
110505,122874
110452,122879
110467,122878
110491,122923
110487,122882
110512,122916
110492,122893
110527,122885
110509,122961
110517,122899
110574,122939
110519,122916
110565,122915
110552,122939
110565,122962
110561,122922
110587,122923
110578,122948
110576,122950
110602,122914
110617,122949
110570,122915
110613,122927
110574,122950
110616,122932
110634,122969
110616,122916
110645,122942
110631,122989
110638,122965
110662,122980
110605,122982
110662,122971
110633,122958
110681,122942
110627,123009
110648,122953
110709,123010
110673,122967
110684,122996
110664,122971
110717,122978
110682,122992
110696,123007
110698,122961
110712,123019
110694,122987
110721,123008
110703,122978
110750,122999
110713,123007
110709,123003
110757,122970
110725,123024
110708,122983
110767,123020
110730,123005
110758,122974
110768,123031
110739,122991
110768,123026
110752,123021
110800,123026
110776,123039
110796,123005
110819,123041
110818,123028
110776,123042
110803,123035
110787,123046
110817,123017
110841,123046
110814,123051
110809,123032
110845,123056
110811,123009
110833,123040
110827,123051
110861,123034
110811,123055
110806,123021
110801,123010
110742,122995
110656,122921
110554,122838
110384,122804
110215,122637
110047,122579
109849,122468
109726,122383
109503,122283
109313,122164
109168,122144
109042,122055
108898,121973
108813,121935
108703,121861
108621,121824
108506,121789
108415,121708
108356,121723
108251,121668
108221,121640
108204,121613
108183,121654
108152,121597
108177,121610
108137,121620
108195,121624
108163,121650
108189,121619
108260,121685
108265,121677
108299,121736
108313,121728
108367,121758
108402,121756
108419,121772
108453,121800
108510,121816
108542,121854
108526,121859
108602,121865
108611,121900
108611,121884
108694,121933
108677,121954
108695,121899
108770,121958
108728,121980
108760,121949
108820,122020
108818,121972
108817,122025
108838,122001
108864,122032
108933,122059
108936,122045
109008,122095
108993,122130
109042,122097
109093,122178
109117,122124
109156,122173
109179,122177
109211,122219
109211,122227
109238,122192
109258,122239
109248,122227
109263,122235
109249,122227
109225,122230
109229,122178
109216,122236
109158,122159
109184,122172
109115,122168
109111,122121
109096,122178
109056,122108
109047,122095
108989,122077
108993,122037
108936,122085
108904,122010
108935,122043
108878,121995
108892,122008
108844,122000
108873,122021
108856,121981
108856,122027
108851,122001
108884,122018
108887,122047
108872,122008
108945,122075
108910,122054
108966,122061
108977,122082
108993,122043
109005,122122
109028,122120
109069,122143
109080,122147
109121,122146
109133,122160
109175,122175
109182,122212
109199,122175
109274,122254
109275,122223
109298,122256
109327,122265
109325,122292
109351,122278
109425,122325
109394,122343
109438,122295
109493,122367
109493,122362
109510,122343
109549,122390
109542,122384
109601,122417
109551,122407
109608,122416
109610,122449
109635,122400
109645,122452
109656,122444
109716,122461
109684,122496
109686,122435
109747,122491
109710,122475
109719,122488
109764,122493
109760,122499
109713,122473
109763,122476
109776,122502
109778,122530
109769,122483
109791,122524
109775,122511
109826,122521
109792,122549
109815,122506
109859,122527
109820,122541
109828,122516
109835,122573
109829,122506
109840,122527
109832,122528
109859,122511
109825,122508
109836,122548
109854,122534
109857,122545
109837,122521
109858,122541
109872,122536
109844,122543
109871,122552
109880,122535
109863,122541
109889,122530
109892,122574
109888,122565
109912,122569
109933,122574
109921,122552
109915,122568
109956,122588
109948,122570
109917,122581
109976,122612
109956,122575
109959,122589
109984,122579
109984,122603
109983,122587
109988,122629
110006,122585
110014,122640
109997,122585
110036,122631
110041,122618
110047,122653
110032,122634
110039,122654
110059,122605
110092,122626
110081,122664
110106,122636
110087,122674
110089,122645
110133,122653
110093,122674
110129,122651
110151,122694
110142,122654
110156,122676
110134,122688
110183,122696
110153,122694
110168,122711
110181,122707
110188,122721
110210,122707
110190,122711
110186,122681
110218,122702
110199,122716
110222,122694
110228,122751
110206,122704
110269,122701
110226,122753
110248,122713
110300,122757
110259,122730
110253,122740
110286,122758
110276,122758
110286,122757
110292,122736
110333,122783
110299,122730
110338,122737
110338,122788
110353,122758
110367,122787
110358,122772
110407,122786
110365,122796
110366,122797
110386,122767
110403,122812
110409,122801
110412,122775
110443,122802
110385,122799
110423,122785
110474,122835
110421,122782
110431,122798
110404,122795
110387,122748
110298,122733
110194,122641
110118,122595
109901,122529
109732,122390
109541,122320
109320,122147
109143,122055
108938,121970
108767,121874
108610,121789
108481,121701
108325,121662
108175,121547
108042,121510
107907,121442
107803,121384
107710,121345
107601,121275
107584,121263
107492,121248
107489,121209
107464,121239
107430,121185
107464,121229
107469,121231
107466,121211
107495,121261
107469,121264
107525,121262
107595,121310
107566,121286
107608,121305
107616,121331
107664,121323
107668,121376
107706,121356
107727,121373
107729,121359
107775,121379
107799,121422
107783,121413
107830,121434
107803,121414
107825,121447
107863,121425
107868,121476
107837,121445
107889,121446
107867,121492
107889,121442
107904,121496
107889,121479
107973,121493
107955,121508
108004,121494
108013,121578
108022,121539
108101,121581
108127,121598
108134,121627
108158,121614
108201,121665
108204,121632
108223,121636
108240,121679
108261,121654
108236,121678
108205,121636
108260,121652
108209,121654
108207,121606
108200,121652
108162,121574
108125,121585
108088,121575
108071,121559
108019,121577
108039,121524
107970,121521
107928,121497
107937,121447
107937,121481
107900,121460
107891,121447
107862,121451
107864,121449
107872,121423
107857,121461
107834,121448
107863,121442
107821,121434
107858,121422
107875,121467
107849,121420
107868,121470
107891,121443
107910,121487
107917,121480
107958,121508
107966,121548
107987,121498
108030,121563
108034,121527
108083,121587
108071,121556
108155,121596
108144,121646
108187,121617
108238,121700
108277,121670
108251,121680
108323,121683
108330,121714
108386,121754
108412,121762
108439,121733
108436,121824
108459,121775
108544,121811
108507,121841
108533,121806
108576,121876
108586,121858
108650,121857
108628,121885
108688,121879
108699,121910
108713,121904
108768,121932
108735,121937
108788,121941
108793,121995
108826,121969
108847,122003
108861,121970
108874,121999
108913,121996
108896,122061
108896,122009
108978,122038
108950,122071
108974,122024
109014,122076
108985,122057
109021,122050
109038,122077
109026,122074
109082,122104
109045,122105
109105,122086
109088,122122
109073,122103
109155,122121
109113,122157
109127,122097
109151,122150
109126,122095
109162,122135
109144,122132
109187,122172
109186,122155
109195,122150
109208,122147
109232,122157
109232,122192
109213,122187
109262,122164
109269,122216
109277,122175
109314,122202
109294,122257
109328,122208
109355,122242
109318,122215
109365,122249
109360,122252
109427,122252
109414,122316
109424,122278
109440,122271
109458,122283
109456,122271
109476,122318
109455,122272
109466,122291
109512,122342
109529,122315
109542,122331
109534,122371
109567,122330
109586,122382
109571,122360
109628,122352
109612,122393
109646,122377
109667,122401
109662,122380
109702,122422
109692,122420
109719,122421
109712,122445
109773,122430
109754,122476
109742,122426
109797,122461
109742,122428
109801,122476
109802,122482
109825,122449
109824,122466
109828,122498
109811,122490
109846,122480
109861,122478
109876,122477
109846,122496
109881,122519
109871,122484
109918,122514
109885,122499
109883,122487
109941,122545
109909,122525
109944,122519
109958,122552
109943,122520
109974,122570
109967,122535
110028,122571
109986,122549
110026,122581
110009,122580
110060,122580
110034,122548
110027,122570
110062,122571
110072,122608
110049,122589
110112,122589
110091,122639
110085,122562
110092,122622
110077,122561
110081,122581
110025,122555
110003,122484
109900,122477
109783,122426
109661,122320
109501,122231
109268,122130
109071,121983
108921,121914
108687,121801
108512,121695
108363,121625
108195,121510
108049,121442
107848,121329
107728,121267
107555,121225
107441,121146
107372,121077
107261,121077
107193,121022
107145,121021
107104,120979
107109,120973
107047,120964
107072,120941
107059,120981
107063,120948
107100,120988
107084,120973
107119,120975
107117,121031
107150,120982
107221,121077
107179,121054
107220,121044
107244,121108
107298,121093
107309,121140
107332,121135
107326,121150
107352,121139
107395,121160
107407,121146
107399,121210
107413,121170
107459,121181
107423,121204
107435,121153
107463,121220
107425,121185
107478,121199
107472,121243
107467,121186
107506,121235
107502,121203
107558,121277
107551,121264
107618,121255
107642,121324
107645,121288
107707,121330
107710,121360
107764,121334
107762,121399
107791,121381
107769,121393
107810,121402
107819,121432
107857,121398
107863,121420
107830,121400
107850,121425
107832,121406
107847,121417
107807,121349
107827,121404
107787,121361
107818,121346
107773,121380
107727,121298
107756,121361
107665,121312
107695,121302
107691,121307
107669,121273
107660,121314
107633,121274
107687,121315
107551,121264
107669,121271
107623,121299
107671,121307
107682,121314
107705,121302
107698,121312
107760,121327
107779,121350
107777,121362
107859,121398
107884,121433
107890,121406
107958,121435
107962,121470
107982,121463
108063,121523
108084,121516
108088,121543
108146,121546
108172,121580
108193,121590
108249,121605
108268,121661
108307,121637
108377,121683
108359,121659
108433,121754
108466,121723
108521,121752
108533,121782
108553,121775
108636,121805
108643,121850
108684,121849
108716,121871
108749,121868
108751,121891
108796,121876
108836,121950
108833,121914
108924,121984
108884,121946
108966,121954
108972,122035
108985,121989
109008,122048
109036,121999
109105,122043
109078,122059
109105,122045
109149,122088
109159,122096
109125,122107
109155,122106
109174,122111
109231,122115
109200,122135
109241,122091
109210,122159
109210,122097
109265,122138
109252,122135
109269,122103
109255,122149
109267,122126
109294,122155
109273,122153
109313,122144
109318,122162
109273,122164
109337,122185
109343,122172
109366,122177
109341,122184
109366,122178
109348,122207
109356,122189
109367,122205
109374,122172
109414,122205
109389,122213
109403,122180
109417,122240
109416,122203
109441,122212
109434,122212
109440,122206
109479,122263
109494,122237
109469,122271
109488,122236
109531,122282
109505,122249
109552,122268
109529,122309
109569,122244
109576,122314
109560,122279
109618,122299
109588,122333
109638,122312
109606,122312
109644,122334
109642,122345
109675,122329
109641,122309
109676,122357
109670,122350
109683,122344
109667,122338
109701,122341
109719,122359
109678,122343
109709,122343
109699,122359
109745,122364
109716,122360
109746,122387
109741,122382
109762,122373
109779,122379
109739,122391
109790,122415
109760,122377
109793,122381
109767,122407
109785,122401
109825,122409
109801,122400
109833,122391
109831,122386
109861,122428
109844,122460
109847,122406
109894,122454
109849,122421
109904,122443
109909,122427
109915,122455
109911,122466
109958,122475
109946,122486
109957,122445
109995,122480
109966,122504
110002,122469
110010,122524
110016,122483
110054,122506
110027,122512
110054,122527
110086,122510
110075,122546
110084,122527
110105,122521
110127,122543
110132,122557
110116,122524
110139,122543
110125,122568
110159,122554
110162,122592
110159,122537
110190,122568
110134,122593
110157,122545
110212,122593
110131,122519
110108,122515
109982,122471
109891,122385
109749,122318
109562,122176
109374,122098
109113,122007
108964,121877
108728,121787
108576,121651
108449,121601
108271,121542
108115,121399
108008,121342
107776,121252
107696,121181
107551,121168
107462,121067
107403,121074
107320,121026
107310,121003
107241,121001
107240,120975
107252,120976
107232,120960
107268,120986
107230,121021
107249,120988
107305,121052
107301,121024
107338,121041
107312,121023
107384,121073
107361,121108
107388,121084
107399,121094
107405,121112
107426,121087
107445,121112
107436,121103
107459,121152
107480,121112
107488,121148
107445,121121
107514,121138
107491,121157
107470,121115
107545,121156
107487,121167
107503,121132
107523,121194
107538,121124
107580,121184
107551,121175
107605,121209
107623,121207
107639,121232
107707,121237
107708,121260
107732,121279
107771,121291
107810,121331
107846,121351
107863,121333
107892,121378
107880,121357
107929,121375
107909,121395
107892,121347
107934,121379
107891,121389
107894,121353
107903,121347
107882,121359
107853,121332
107863,121312
107858,121350
107821,121308
107835,121342
107786,121302
107836,121279
107762,121316
107790,121326
107788,121288
107805,121327
107818,121297
107869,121339
107840,121370
107889,121333
107898,121353
107909,121349
107962,121386
107988,121373
108045,121432
108055,121430
108111,121460
108156,121494
108190,121500
108233,121568
108272,121555
108370,121592
108369,121635
108455,121637
108517,121718
108565,121697
108632,121757
108673,121763
108707,121807
108773,121822
108815,121867
108849,121864
108927,121926
108956,121892
109011,121983
109030,121958
109097,121965
109093,122034
109121,122006
109172,122044
109139,122038
109197,122027
109218,122093
109215,122047
109242,122068
109248,122047
109289,122055
109234,122096
109276,122121
109307,122072
109339,122120
109300,122107
109338,122094
109327,122144
109382,122155
109336,122137
109359,122119
109402,122145
109386,122176
109397,122113
109450,122167
109421,122171
109432,122167
109412,122160
109473,122182
109442,122212
109452,122153
109478,122193
109460,122146
109494,122194
109461,122209
109527,122153
109511,122220
109518,122172
109538,122218
109529,122239
109540,122207
109535,122239
109545,122192
109556,122228
109574,122238
109548,122227
109579,122214
109598,122255
109571,122229
109594,122236
109607,122272
109612,122228
109607,122275
109601,122234
109654,122256
109627,122290
109634,122247
109668,122318
109659,122260
109684,122275
109690,122284
109698,122251
109682,122309
109658,122292
109729,122288
109713,122333
109711,122305
109766,122337
109763,122314
109763,122299
109780,122307
109794,122342
109783,122336
109840,122318
109816,122375
109818,122324
109859,122369
109870,122381
109874,122367
109861,122393
109916,122390
109910,122401
109922,122410
109922,122388
109950,122412
109920,122405
109971,122408
109964,122442
109951,122415
110019,122446
109980,122420
110017,122419
109988,122456
110010,122451
110034,122445
110037,122461
110025,122468
110044,122490
110064,122433
110131,122496
110093,122464
110108,122461
110107,122529
110114,122463
110149,122509
110123,122492
110183,122493
110109,122534
110169,122496
110180,122563
110159,122505
110189,122506
110207,122526
110213,122550
110181,122489
110213,122519
110263,122517
110218,122555
110240,122553
110239,122546
110245,122545
110303,122560
110262,122538
110269,122545
110271,122593
110259,122544
110313,122563
110283,122576
110300,122539
110321,122585
110334,122598
110321,122583
110335,122590
110320,122558
110365,122611
110337,122585
110395,122566
110343,122615
110347,122576
110410,122634
110374,122587
110390,122631
110382,122570
110379,122571
110325,122564
110282,122520
110186,122464
110045,122402
109960,122342
109780,122227
109608,122153
109405,122041
109251,121939
109089,121861
108927,121749
108860,121734
108702,121694
108651,121597
108570,121594
108462,121511
108397,121493
108303,121469
108301,121457
108216,121427
108193,121384
108183,121403
108132,121363
108121,121383
108171,121407
108157,121405
108167,121396
108238,121449
108203,121424
108269,121455
108276,121503
108333,121481
108373,121530
108387,121545
108464,121572
108479,121641
108539,121623
108579,121635
108604,121668
108649,121715
108665,121716
108683,121721
108771,121745
108736,121732
108791,121727
108797,121782
108848,121760
108865,121816
108867,121790
108919,121814
108926,121825
108965,121844
109017,121873
109015,121910
109057,121909
109088,121916
109116,121954
109164,122012
109188,122000
109274,122018
109260,122051
109277,122002
109346,122093
109333,122059
109364,122061
109355,122096
109368,122066
109383,122080
109344,122071
109369,122040
109331,122076
109339,122047
109319,122011
109321,122029
109303,122048
109246,122033
109270,122020
109227,121972
109242,121985
109178,122005
109202,121938
109222,121952
109134,121941
109172,121917
109154,121973
109149,121926
109176,121943
109150,121939
109149,121925
109146,121936
109154,121953
109232,121959
109187,121967
109221,121963
109268,122028
109252,122008
109306,122020
109308,122038
109354,122059
109392,122056
109386,122087
109457,122077
109459,122142
109457,122096
109560,122141
109482,122137
109543,122147
109569,122178
109564,122185
109580,122175
109607,122156
109644,122205
109645,122165
109671,122208
109683,122205
109709,122208
109694,122250
109721,122219
109774,122275
109743,122228
109773,122264
109780,122291
109809,122273
109802,122271
109838,122257
109843,122297
109854,122317
109858,122283
109882,122292
109879,122290
109911,122302
109928,122363
109896,122315
109964,122325
109913,122362
109951,122342
109974,122381
109965,122337
110016,122353
109962,122362
110006,122387
109990,122388
110023,122384
110022,122375
110039,122383
110041,122379
110044,122397
110024,122381
110086,122397
110061,122408
110076,122396
110056,122394
110094,122407
110142,122443
110085,122390
110126,122431
110114,122447
110142,122437
110132,122405
110141,122441
110174,122472
110146,122425
110192,122454
110168,122480
110185,122430
110196,122473
110184,122458
110194,122461
110199,122513
110223,122450
110249,122498
110217,122445
110281,122491
110239,122502
110241,122503
110269,122521
110244,122501
110292,122473
110255,122521
110284,122486
110325,122533
110287,122500
110318,122478
110304,122548
110315,122500
110362,122525
110322,122508
110375,122504
110344,122561
110354,122508
110404,122559
110360,122513
110408,122536
110365,122558
110403,122559
110372,122525
110415,122560
110406,122553
110420,122547
110429,122554
110415,122562
110464,122569
110413,122576
110461,122582
110427,122574
110470,122583
110437,122575
110495,122593
110483,122594
110478,122596
110495,122563
110476,122592
110499,122617
110495,122595
110517,122592
110495,122600
110525,122623
110511,122588
110532,122606
110539,122593
110531,122617
110552,122623
110552,122628
110530,122590
110576,122614
110594,122611
110565,122626
110563,122626
110591,122629
110559,122630
110575,122644
110586,122627
110598,122618
110586,122634
110604,122649
110594,122644
110645,122622
110606,122646
110600,122631
110627,122648
110643,122660
110622,122670
110659,122635
110638,122661
110643,122646
110660,122656
110635,122646
110687,122664
110653,122650
110655,122656
110611,122659
110664,122652
110584,122644
110547,122576
110442,122538
110329,122459
110146,122356
110009,122282
109818,122165
109670,122100
109517,121992
109331,121920
109153,121827
109037,121766
108951,121668
108831,121639
108771,121623
108665,121572
108590,121524
108529,121497
108448,121450
108401,121453
108356,121413
108330,121409
108310,121392
108309,121405
108250,121407
108266,121398
108283,121403
108318,121397
108281,121446
108313,121446
108336,121453
108341,121429
108386,121459
108346,121464
108402,121453
108391,121492
108393,121458
108452,121496
108411,121525
108482,121514
108466,121543
108488,121500
108495,121543
108498,121558
108518,121545
108517,121536
108522,121555
108526,121527
108544,121589
108527,121578
108581,121550
108607,121599
108613,121590
108685,121642
108694,121682
108710,121636
108788,121709
108764,121701
108843,121732
108871,121769
108905,121756
108917,121780
108986,121780
108982,121810
109028,121803
109023,121847
109044,121799
109081,121865
109053,121857
109075,121833
109057,121864
109058,121831
109081,121802
109042,121850
109005,121843
109001,121813
108990,121828
108972,121768
108954,121777
108931,121789
108894,121742
108921,121746
108890,121759
108862,121714
108900,121722
108854,121761
108883,121716
108889,121778
108880,121733
108889,121773
108876,121726
108958,121765
108903,121796
108940,121766
108963,121813
108967,121792
109014,121814
109047,121832
109054,121836
109063,121841
109132,121890
109127,121885
109175,121886
109210,121932
109215,121908
109283,121974
109293,121977
109331,121981
109353,122035
109375,121992
109431,122023
109428,122054
109446,122071
109472,122073
109474,122087
109515,122066
109529,122106
109542,122119
109558,122103
109566,122154
109573,122086
109630,122135
109618,122122
109613,122126
109672,122140
109638,122171
109653,122133
109692,122215
109674,122162
109721,122188
109700,122210
109684,122183
109740,122200
109729,122189
109769,122192
109739,122207
109786,122224
109783,122229
109802,122225
109766,122215
109808,122248
109830,122215
109816,122235
109858,122230
109809,122226
109850,122241
109858,122254
109833,122249
109828,122230
109843,122239
109855,122237
109864,122251
109890,122239
109843,122238
109902,122263
109920,122247
109895,122268
109893,122263
109909,122259
109940,122270
109920,122261
109941,122297
109954,122256
109950,122296
109965,122292
109984,122317
109980,122307
109998,122322
110011,122309
109998,122322
110039,122308
110011,122326
110056,122340
110057,122318
110061,122341
110057,122328
110079,122362
110093,122354
110094,122357
110048,122344
110122,122367
110107,122351
110139,122356
110088,122382
110135,122362
110129,122394
110175,122372
110139,122395
110169,122387
110167,122383
110213,122387
110154,122382
110224,122431
110187,122408
110209,122404
110213,122416
110222,122414
110237,122398
110245,122428
110275,122422
110299,122431
110264,122421
110298,122442
110268,122436
110308,122458
110306,122452
110336,122470
110315,122446
110343,122480
110339,122463
110362,122474
110368,122473
110370,122492
110373,122470
110378,122497
110398,122468
110405,122500
110385,122495
110408,122482
110420,122509
110420,122502
110417,122530
110431,122514
110445,122530
110436,122515
110459,122519
110451,122519
110481,122530
110465,122527
110486,122532
110466,122526
110505,122549
110506,122527
110501,122532
110488,122541
110495,122552
110481,122536
110516,122544
110536,122547
110497,122553
110540,122559
110544,122552
110547,122550
110571,122560
110544,122569
110569,122571
110542,122571
110577,122581
110554,122570
110585,122552
110599,122575
110588,122560
110547,122563
110543,122541
110544,122520
110412,122498
110353,122414
110273,122367
110086,122300
109956,122217
109792,122102
109620,122018
109448,121896
109239,121815
109110,121762
108991,121645
108933,121655
108820,121592
108723,121534
108666,121511
108604,121491
108587,121445
108543,121463
108486,121442
108495,121419
108395,121424
108449,121429
108429,121406
108417,121428
108392,121408
108459,121430
108454,121429
108460,121465
108463,121459
108510,121470
108521,121479
108567,121514
108563,121514
108650,121574
108679,121562
108683,121586
108721,121617
108741,121620
108764,121647
108787,121631
108826,121675
108875,121655
108837,121673
108899,121709
108892,121685
108924,121716
108964,121716
108962,121739
108968,121734
109039,121755
109029,121752
109088,121820
109095,121809
109165,121827
109150,121853
109211,121883
109224,121874
109245,121888
109278,121912
109305,121926
109344,121935
109330,121944
109372,121970
109371,121951
109367,121948
109379,121949
109380,121984
109382,121975
109384,121963
109354,121936
109376,121958
109342,121935
109323,121916
109315,121904
109268,121906
109292,121880
109229,121872
109248,121868
109211,121845
109191,121844
109155,121837
109166,121812
109112,121801
109121,121805
109122,121772
109048,121787
109077,121808
109047,121757
109053,121771
109065,121765
109039,121764
109053,121782
109040,121761
109090,121780
109087,121782
109080,121800
109120,121802
109128,121816
109153,121844
109172,121848
109206,121855
109213,121868
109226,121863
109256,121890
109284,121898
109267,121910
109325,121941
109334,121947
109348,121926
109368,121949
109353,121941
109411,121970
109396,121977
109433,121970
109445,122002
109121,121805
109467,122011
109483,122001
109522,122017
109487,122018
109535,122012
109559,122053
109535,122044
109552,122052
109543,122043
109582,122055
109581,122045
109545,122049
109560,122082
109557,122030
109638,122091
109609,122067
109593,122073
109598,122076
109600,122043
109617,122092
109618,122078
109600,122045
109633,122113
109613,122067
109694,122100
109627,122078
109696,122084
109675,122106
109692,122104
109668,122088
109738,122092
109707,122146
109705,122091
109717,122122
109756,122138
109732,122110
109751,122156
109703,122120
109747,122106
109724,122156
109743,122122
109761,122143
109737,122121
109796,122115
109741,122161
109752,122116
109814,122170
109772,122141
109808,122132
109803,122165
109830,122162
109834,122142
109832,122167
109833,122180
109838,122173
109845,122167
109850,122200
109842,122181
109886,122185
109854,122214
109848,122182
109910,122188
109878,122225
109890,122175
109929,122230
109902,122198
109939,122202
109902,122227
109945,122213
109914,122245
109943,122217
109964,122205
109998,122232
109983,122261
109998,122235
110013,122267
109998,122219
110010,122230
110013,122230
110052,122272
110028,122295
110051,122243
110052,122291
110030,122270
110093,122284
110075,122292
110075,122259
110104,122287
110094,122289
110119,122290
110155,122315
110118,122312
110143,122284
110149,122358
110172,122295
110197,122338
110152,122319
110219,122313
110195,122367
110206,122318
110237,122352
110245,122347
110234,122357
110214,122368
110243,122362
110241,122365
110271,122372
110264,122354
110294,122397
110279,122358
110319,122361
110279,122425
110295,122354
110356,122394
110298,122405
110321,122384
110352,122422
110347,122378
110361,122415
110366,122419
110404,122423
110373,122434
110399,122454
110375,122438
110418,122441
110372,122458
110412,122439
110450,122452
110430,122445
110389,122443
110313,122391
110312,122382
110221,122353
110103,122243
109980,122212
109801,122090
109663,122010
109430,121868
109281,121763
109071,121694
108894,121584
108759,121531
108577,121461
108445,121350
108306,121315
108138,121187
108015,121167
107895,121087
107814,121049
107654,120994
107604,120930
107514,120917
107491,120874
107444,120875
107405,120833
107375,120847
107384,120812
107397,120861
107344,120817
107411,120837
107379,120874
107411,120845
107473,120905
107436,120885
107470,120905
107460,120918
107499,120893
107516,120946
107499,120912
107546,120933
107512,120974
107552,120950
107506,120925
107561,120963
107546,120962
107559,120942
107549,120942
107557,120949
107537,120960
107568,120944
107545,120982
107556,120959
107596,120953
107595,121011
107599,120969
107672,121024
107631,121020
107683,120995
107721,121055
107733,121038
107756,121068
107755,121083
107774,121065
107804,121125
107759,121071
107787,121090
107752,121063
107792,121058
107751,121097
107722,121027
107742,121068
107705,121050
107675,121019
107683,121025
107633,121016
107608,120968
107586,120974
107552,120950
107561,120985
107502,120941
107499,120909
107486,120903
107443,120933
107419,120870
107438,120909
107420,120894
107409,120852
107420,120904
107399,120871
107414,120878
107382,120865
107435,120874
107407,120905
107450,120884
107463,120910
107434,120903
107471,120906
107473,120924
107518,120914
107570,120955
107528,120918
107551,120946
107585,121001
107594,120979
107631,120998
107648,121009
107699,121004
107717,121080
107715,121044
107808,121077
107801,121094
107862,121130
107848,121119
107889,121163
107933,121167
107927,121192
107980,121178
108020,121230
108043,121199
108070,121241
108053,121221
108130,121271
108143,121238
108197,121284
108178,121335
108220,121277
108262,121341
108260,121330
108268,121354
108293,121333
108329,121376
108300,121412
108370,121392
108384,121431
108377,121387
108411,121416
108388,121436
108455,121417
108445,121473
108458,121408
108501,121479
108464,121458
108536,121476
108522,121491
108544,121491
108568,121471
108608,121514
108571,121511
108626,121506
108609,121525
108621,121516
108687,121535
108675,121562
108686,121532
108727,121588
108733,121559
108776,121575
108755,121591
108797,121587
108776,121633
108791,121606
108836,121646
108854,121617
108856,121649
108867,121651
108904,121669
108843,121644
108928,121651
108929,121693
108946,121655
108950,121675
108988,121720
108994,121691
109020,121711
109020,121765
109033,121733
109077,121749
109066,121769
109128,121758
109119,121781
109126,121808
109175,121813
109168,121799
109197,121799
109209,121844
109209,121824
109255,121847
109245,121827
109296,121839
109263,121892
109297,121843
109329,121916
109322,121887
109357,121904
109350,121873
109416,121932
109401,121904
109392,121916
109447,121934
109431,121936
109500,121947
109460,121982
109500,121982
109557,122017
109532,121974
109565,122017
109560,122030
109621,122001
109609,122063
109607,122013
109666,122057
109645,122066
109686,122061
109705,122079
109735,122104
109727,122095
109744,122070
109793,122089
109756,122135
109772,122085
109831,122129
109767,122121
109816,122148
109858,122145
109837,122143
109876,122160
109852,122154
109908,122191
109883,122181
109938,122187
109909,122198
109931,122184
109963,122221
109947,122193
109976,122215
109973,122221
109973,122212
110006,122234
109971,122248
110029,122239
110032,122235
110061,122217
110022,122227
110054,122248
110051,122253
110080,122240
110084,122267
110049,122268
110021,122250
110012,122227
110034,122224
109975,122192
109863,122139
109779,122046
109660,122031
109449,121876
109260,121764
109036,121676
108859,121525
108684,121461
108491,121363
108390,121275
108176,121211
108054,121096
107933,121074
107803,120981
107689,120955
107551,120844
107469,120802
107409,120751
107325,120748
107287,120749
107229,120677
107224,120688
107194,120686
107210,120671
107206,120717
107203,120695
107236,120711
107212,120748
107234,120686
107298,120773
107278,120727
107296,120741
107309,120760
107349,120780
107356,120782
107376,120806
107351,120748
107410,120810
107380,120834
107396,120804
107421,120833
107404,120780
107428,120830
107393,120797
107418,120824
107390,120826
107398,120842
107384,120802
107368,120772
107410,120771
107374,120835
107396,120788
107414,120829
107389,120805
107449,120826
107434,120867
107447,120817
107508,120865
107473,120870
107551,120889
107572,120932
107587,120911
107629,120940
107620,120930
107664,120953
107646,120977
107692,120966
107693,120967
107706,120979
107716,120967
107668,120998
107659,120959
107693,120942
107700,120981
107660,120942
107683,120935
107622,120962
107626,120920
107648,120934
107592,120925
107598,120896
107591,120925
107564,120884
107557,120902
107560,120899
107582,120910
107537,120876
107540,120881
107579,120940
107571,120870
107592,120903
107557,120886
107634,120922
107597,120943
107627,120973
107649,120935
107701,121000
107688,120985
107739,120975
107752,121009
107784,121046
107836,121016
107819,121063
107851,121067
107923,121090
107959,121143
107989,121119
108040,121168
108046,121156
108124,121183
108129,121242
108166,121183
108215,121258
108212,121263
108277,121282
108292,121315
108310,121304
108346,121324
108370,121369
108390,121354
108426,121359
108453,121383
108442,121391
108527,121379
108503,121436
108512,121422
108583,121448
108585,121484
108595,121441
108676,121484
108627,121518
108675,121487
108687,121536
108707,121523
108715,121550
108753,121512
108751,121556
108789,121565
108815,121554
108815,121592
108817,121552
108878,121583
108845,121620
108900,121596
108904,121596
108889,121626
108919,121619
108966,121671
108924,121634
108962,121659
108981,121654
108991,121643
109012,121686
109033,121689
109028,121711
109012,121661
109076,121708
109049,121696
109091,121694
109089,121729
109120,121706
109133,121748
109096,121694
109152,121733
109134,121784
109170,121744
109163,121760
109206,121760
109225,121769
109250,121774
109227,121811
109242,121807
109283,121789
109302,121829
109286,121800
109328,121830
109305,121826
109356,121831
109354,121879
109368,121852
109428,121887
109379,121883
109444,121878
109479,121931
109456,121901
109494,121937
109503,121929
109525,121942
109568,121944
109536,121978
109555,121931
109606,121979
109544,121949
109590,122008
109599,121972
109623,122013
109634,121984
109694,121995
109679,122036
109663,121990
109740,122032
109713,122035
109733,122043
109718,122032
109774,122043
109756,122033
109791,122040
109796,122092
109780,122051
109840,122082
109797,122096
109825,122078
109839,122121
109824,122067
109872,122117
109850,122083
109885,122104
109864,122133
109873,122108
109925,122120
109908,122143
109900,122126
109955,122118
109901,122128
109927,122164
109950,122123
109980,122166
109941,122135
109991,122138
109999,122178
109988,122126
109998,122169
109971,122132
110022,122170
109997,122206
110022,122156
110043,122195
110063,122174
110078,122210
110063,122181
110103,122198
110071,122215
110093,122184
110102,122228
110093,122186
110095,122230
110133,122217
110140,122259
110109,122209
110177,122231
110126,122244
110166,122237
110184,122270
110175,122236
110182,122262
110203,122239
110174,122271
110169,122254
110142,122226
110120,122191
110027,122157
109942,122087
109830,122070
109676,121948
109520,121855
109247,121705
109052,121587
108844,121519
108648,121403
108511,121306
108355,121225
108204,121132
108039,121062
107921,120998
107783,120953
107659,120865
107610,120796
107481,120811
107383,120728
107405,120759
107319,120709
107323,120700
107312,120716
107298,120668
107322,120704
107290,120679
107350,120693
107326,120753
107350,120734
107382,120732
107354,120728
107425,120760
107390,120765
107413,120794
107454,120786
107461,120831
107486,120798
107543,120832
107499,120848
107545,120821
107575,120857
107547,120843
107583,120869
107569,120875
107571,120825
107585,120857
107588,120862
107576,120872
107585,120862
107588,120842
107592,120892
107606,120857
107621,120885
107604,120899
107639,120870
107662,120930
107679,120913
107712,120951
107714,120937
107782,120965
107786,120990
107812,120998
107851,120989
107842,121002
107868,121060
107867,121041
107891,121026
107896,121060
107844,121007
107875,121036
107855,121052
107872,120987
107856,121029
107825,121007
107850,121014
107800,121012
107823,120960
107764,120979
107755,120935
107728,120958
107730,120940
107708,120936
107741,120946
107694,120926
107675,120910
107672,120884
107691,120937
107657,120894
107694,120889
107690,120958
107673,120906
107752,120950
107704,120923
107762,120928
107768,120967
107794,120958
107848,121024
107862,121014
107895,121020
107915,121050
107946,121057
107991,121081
107997,121106
108077,121096
108084,121168
108105,121120
108174,121193
108177,121176
108236,121210
108274,121204
108312,121252
108321,121263
108391,121281
108400,121321
108438,121334
108498,121377
108499,121366
108574,121382
108569,121427
108615,121427
108665,121432
108686,121485
108680,121450
108775,121505
108737,121498
108786,121485
108808,121548
108813,121496
108865,121566
108852,121547
108924,121542
108921,121585
108907,121586
108948,121577
108967,121614
108958,121626
108962,121603
108958,121599
109002,121639
108989,121601
109023,121635
109004,121640
109065,121611
109026,121667
109044,121621
109083,121655
109070,121673
109098,121651
109122,121693
109153,121665
109166,121688
109153,121707
109205,121728
109184,121731
109165,121705
109220,121730
109219,121721
109263,121745
109216,121757
109239,121744
109275,121763
109292,121758
109339,121772
109317,121783
109323,121775
109363,121830
109360,121802
109408,121816
109407,121840
109416,121855
109429,121793
109471,121871
109453,121855
109509,121857
109502,121906
109502,121853
109562,121909
109531,121915
109586,121897
109601,121932
109602,121887
109626,121943
109627,121939
109643,121951
109664,121958
109661,121967
109691,121933
109691,121954
109719,121981
109687,121982
109736,121970
109750,122013
109716,121977
109790,121991
109774,122041
109789,121977
109836,122046
109813,122046
109815,122019
109842,122054
109829,122060
109871,122055
109836,122060
109855,122053
109879,122054
109907,122100
109889,122049
109913,122088
109896,122045
109903,122078
109947,122087
109931,122106
109928,122050
109945,122088
109933,122106
109968,122081
109949,122114
109971,122095
109966,122081
110016,122121
109951,122083
110021,122094
109996,122154
109995,122106
110026,122117
110009,122117
110069,122117
110022,122168
110046,122112
110091,122160
110037,122119
110076,122137
110072,122170
110088,122147
110075,122160
110108,122148
110135,122193
110118,122169
110126,122177
110135,122156
110119,122177
110179,122189
110121,122182
110170,122191
110158,122185
110201,122196
110134,122172
110178,122195
110164,122181
110167,122187
110095,122150
110110,122134
110020,122090
109886,122034
109863,121989
109710,121912
109502,121810
109320,121668
109122,121572
108902,121476
108766,121356
108643,121304
108453,121252
108307,121159
108226,121055
108074,121046
107957,120935
107917,120934
107767,120882
107710,120832
107647,120799
107612,120766
107546,120770
107516,120752
107479,120699
107463,120739
107433,120705
107488,120724
107431,120700
107472,120712
107450,120733
107473,120713
107485,120758
107504,120780
107489,120764
107547,120775
107549,120776
107590,120780
107576,120807
107583,120810
107628,120831
107609,120841
107636,120805
107656,120852
107612,120812
107659,120833
107640,120861
107672,120816
107681,120874
107651,120826
107702,120872
107676,120902
107703,120848
107739,120885
107749,120876
107752,120905
107802,120915
107808,120908
107866,120950
107903,120980
107902,120997
107945,120976
107983,121046
107999,121064
108074,121041
108062,121087
108073,121062
108125,121091
108082,121067
108104,121064
108094,121096
108079,121063
108104,121082
108071,121049
108066,121006
108067,121047
107998,121057
108011,121017
108012,121027
107965,121007
107977,120995
107928,121003
107930,120962
107914,120993
107887,120946
107900,120962
107881,120952
107850,120934
107850,120928
107869,120925
107882,120955
107849,120936
107873,120929
107856,120990
107872,120926
107918,120991
107869,120931
107936,120990
107934,121016
107972,120971
108007,121036
107992,120997
108040,121039
108058,121059
108112,121062
108131,121049
108153,121111
108174,121130
108217,121115
108244,121163
108227,121158
108287,121202
108307,121179
108377,121223
108353,121203
108389,121227
108421,121288
108443,121239
108484,121293
108472,121272
108533,121295
108516,121345
108564,121325
108595,121339
108606,121368
108627,121364
108668,121363
108670,121406
108664,121375
108719,121425
108715,121403
108767,121418
108762,121454
108783,121426
108771,121461
108828,121456
108848,121488
108835,121478
108894,121454
108884,121504
108901,121508
108924,121515
108920,121510
108950,121511
108967,121533
108974,121550
108982,121545
108989,121560
108994,121538
109040,121578
108994,121599
109023,121544
109037,121590
109035,121563
109074,121583
109071,121617
109104,121592
109098,121594
109138,121617
109142,121628
109133,121633
109170,121658
109181,121618
109239,121673
109188,121655
109243,121638
109247,121698
109257,121672
109305,121686
109314,121708
109340,121703
109339,121755
109354,121732
109430,121751
109398,121749
109439,121790
109415,121752
109462,121784
109440,121792
109445,121807
109513,121785
109494,121843
109519,121785
109562,121846
109575,121838
109566,121860
109598,121827
109624,121878
109629,121840
109636,121871
109638,121892
109669,121883
109638,121871
109695,121890
109705,121890
109728,121919
109691,121891
109731,121929
109724,121907
109776,121912
109739,121959
109768,121931
109803,121976
109760,121931
109804,121934
109815,122003
109846,121956
109841,121990
109843,121962
109882,121969
109877,122000
109869,122002
109860,122021
109879,121976
109922,122021
109902,122014
109913,122003
109934,122019
109914,121996
109947,122012
109913,122017
109952,122017
109993,122030
109937,121999
109998,122024
109972,122053
109969,122019
109999,122016
109973,122078
109981,122051
110019,122016
110028,122076
110005,122044
110037,122080
110029,122062
110061,122064
110072,122040
110079,122083
110059,122058
110117,122059
110080,122124
110107,122070
110147,122113
110137,122108
110143,122085
110147,122143
110168,122115
110194,122102
110167,122115
110158,122091
110184,122125
110177,122118
110219,122105
110206,122163
110216,122130
110233,122163
110226,122121
110216,122180
110255,122147
110243,122146
110217,122146
110167,122099
110156,122083
110042,122023
109979,122001
109795,121893
109700,121813
109526,121756
109288,121581
109077,121462
108865,121390
108707,121270
108550,121252
108406,121119
108330,121072
108156,120988
108075,120936
107979,120888
107882,120833
107817,120825
107730,120781
107663,120719
107664,120741
107615,120713
107575,120705
107595,120713
107563,120699
107565,120724
107573,120721
107579,120672
107617,120751
107601,120708
107674,120763
107643,120763
107680,120774
107713,120812
107695,120786
107755,120797
107774,120822
107784,120871
107810,120832
107818,120875
107815,120851
107874,120879
107845,120909
107883,120859
107902,120933
107851,120866
107866,120900
107911,120886
107920,120919
107883,120911
107911,120913
107902,120914
107909,120906
107908,120928
107924,120904
107987,120945
107974,120945
108031,120964
108035,121020
108073,120968
108119,121045
108108,121000
108200,121049
108171,121057
108201,121049
108239,121110
108259,121070
108256,121089
108245,121092
108297,121105
108304,121113
108258,121089
108277,121106
108246,121058
108244,121079
108221,121047
108226,121048
108202,121077
108189,120993
108219,121040
108132,121039
108156,120999
108125,121037
108120,120973
108108,120991
108090,120994
108063,121004
108068,121007
108059,120953
108071,120972
108054,120970
108062,120952
108079,121001
108072,120973
108109,120987
108093,120957
108175,121007
108145,121040
108179,121055
108187,121034
108251,121075
108255,121092
108285,121095
108307,121104
108353,121151
108364,121130
108403,121151
108415,121190
108466,121156
108500,121220
108492,121203
108579,121237
108552,121294
108595,121250
108657,121316
108630,121295
108691,121301
108688,121344
108756,121326
108785,121365
108780,121338
108821,121388
108835,121397
108854,121378
108924,121437
108895,121436
108943,121434
108964,121473
108952,121448
109008,121461
108988,121473
109059,121478
109037,121533
109051,121488
109110,121520
109077,121506
109126,121533
109096,121581
109098,121548
109147,121543
109161,121593
109146,121553
109216,121601
109175,121578
109222,121580
109210,121598
109242,121601
109261,121594
109269,121647
109271,121613
109305,121635
109298,121651
109308,121628
109324,121644
109341,121682
109334,121675
109340,121629
109407,121683
109352,121673
109406,121679
109401,121717
109405,121696
109438,121750
109426,121700
109507,121733
109465,121725
109502,121717
109512,121777
109507,121756
109552,121760
109549,121761
109553,121785
109592,121769
109597,121799
109577,121804
109603,121793
109637,121775
109661,121810
109632,121837
109685,121797
109681,121842
109693,121805
109726,121851
109699,121862
109728,121834
109740,121871
109724,121815
109751,121861
109765,121868
109790,121884
109758,121885
109788,121888
109781,121869
109825,121882
109778,121891
109817,121861
109799,121928
109827,121895
109819,121921
109826,121891
109891,121918
109835,121951
109867,121911
109900,121954
109887,121903
109893,121918
109898,121942
109921,121937
109888,121955
109907,121930
109937,121984
109902,121926
109936,121954
109936,121985
109961,121930
109969,121987
109962,121936
109992,121959
109959,122008
109997,121955
110023,122010
110010,121967
110037,121997
110023,121971
110036,122009
110035,122005
110106,122034
110053,122021
110082,121974
110092,122058
110086,122035
110127,122039
110119,122066
110125,122020
110142,122075
110138,122031
110183,122060
110136,122066
110174,122025
110190,122082
110174,122072
110212,122082
110185,122080
110208,122058
110247,122089
110241,122100
110209,122049
110250,122095
110217,122097
110266,122121
110264,122104
110254,122088
110233,122081
110204,122057
110171,122028
110051,121975
109962,121922
109843,121829
109694,121789
109542,121649
109325,121564
109169,121474
108978,121380
108812,121299
108686,121206
108593,121166
108512,121095
108387,121068
108303,121004
108227,120980
108191,120937
108093,120929
108040,120898
108047,120881
107990,120852
108025,120872
108007,120885
107955,120870
108010,120849
108019,120891
108000,120893
108050,120907
108053,120939
108121,120912
108151,120982
108159,120946
108229,121006
108202,121036
108274,121012
108303,121071
108323,121042
108350,121064
108341,121076
108433,121105
108458,121130
108458,121131
108469,121138
108513,121177
108523,121178
108557,121189
108636,121217
108614,121269
108633,121224
108723,121270
108687,121257
108764,121274
108760,121310
108821,121319
108856,121334
108895,121368
108937,121378
109001,121446
109012,121464
109072,121447
109110,121519
109114,121480
109171,121540
109159,121506
109225,121538
109207,121577
109182,121516
109203,121547
109232,121533
109167,121533
109193,121499
109186,121510
109170,121485
109122,121503
109127,121484
109099,121480
109048,121401
109035,121442
108980,121392
109036,121398
108955,121410
108945,121347
108955,121392
108905,121350
108938,121362
108932,121386
108963,121346
108976,121408
108978,121391
108969,121415
109009,121413
109057,121444
109077,121457
109103,121491
109105,121479
109124,121464
109169,121523
109153,121515
109231,121526
109249,121566
109269,121530
109317,121591
109287,121582
109365,121586
109370,121653
109420,121616
109455,121652
109510,121672
109458,121716
109499,121675
109575,121707
109543,121732
109571,121703
109624,121752
109604,121712
109631,121754
109623,121746
109679,121775
109645,121794
109690,121763
109715,121789
109687,121752
109725,121809
109749,121802
109731,121804
109766,121835
109743,121824
109756,121821
109780,121801
109780,121856
109777,121803
109831,121861
109779,121845
109808,121811
109826,121856
109808,121823
109842,121863
109814,121864
109869,121850
109842,121884
109853,121889
109862,121892
109855,121868
109874,121909
109875,121859
109845,121860
109904,121881
109843,121909
109889,121877
109897,121914
109892,121872
109909,121897
109889,121891
109906,121878
109906,121915
109873,121872
109943,121898
109905,121909
109940,121863
109933,121885
109905,121892
109936,121935
109922,121898
109960,121914
109936,121913
109962,121890
109947,121936
109954,121926
109959,121944
109966,121892
109989,121929
109977,121911
110024,121911
109991,121973
110000,121927
110047,121934
110029,121948
110048,121964
110053,121934
110072,121963
110042,121942
110106,121980
110078,121992
110107,121951
110113,122008
110097,121961
110109,121993
110138,122000
110147,121966
110138,122026
110117,121973
110171,122022
110147,122008
110150,121986
110189,121999
110204,122030
110149,122028
110155,122036
110193,121991
110238,122028
110187,122019
110218,122021
110242,122044
110232,122013
110260,122061
110223,122039
110272,122050
110239,122067
110269,122041
110271,122059
110259,122077
110269,122073
110296,122059
110267,122077
110298,122052
110315,122093
110294,122055
110343,122092
110333,122062
110333,122108
110353,122106
110352,122119
110333,122079
110362,122095
110370,122130
110383,122074
110370,122109
110382,122085
110389,122115
110376,122072
110437,122144
110379,122134
110415,122092
110419,122152
110394,122111
110428,122137
110357,122109
110377,122085
110305,122080
110229,121974
110158,121980
110014,121878
109898,121813
109746,121722
109541,121593
109321,121505
109129,121367
108973,121286
108777,121226
108723,121137
108562,121114
108433,120993
108404,121001
108222,120941
108203,120863
108110,120882
108040,120814
108006,120813
107947,120758
107949,120757
107917,120758
107873,120710
107910,120743
107879,120771
107879,120749
107930,120765
107907,120806
107957,120788
107968,120810
107968,120844
107974,120841
108032,120825
108060,120886
108060,120865
108118,120894
108096,120914
108126,120876
108176,120950
108171,120941
108176,120950
108229,120965
108207,120981
108242,120986
108242,120990
108251,120940
108254,121011
108247,120952
108308,121015
108272,121013
108311,120978
108309,121024
108321,120992
108339,121041
108350,121042
108389,121052
108426,121060
108469,121072
108470,121097
108504,121111
108532,121149
108528,121106
108590,121152
108574,121190
108576,121137
108627,121178
108567,121147
108581,121125
108586,121182
108557,121131
108570,121145
108554,121131
108536,121089
108523,121123
108499,121095
108461,121088
108454,121088
108432,121053
108430,121060
108381,121023
108388,121036
108341,121020
108317,120961
108322,121022
108288,120986
108330,120966
108306,121016
108255,120935
108316,120996
108249,121004
108291,120996
108298,120986
108307,121001
108318,121020
108327,121035
108362,120989
108387,121055
108374,121023
108455,121066
108437,121113
108481,121078
108504,121127
108529,121102
108557,121173
108583,121181
108633,121162
108679,121211
108710,121238
108723,121225
108787,121263
108813,121263
108831,121317
108837,121273
108904,121340
108908,121355
108992,121339
108979,121399
108983,121383
109091,121428
109055,121455
109095,121410
109152,121475
109127,121448
109190,121463
109199,121501
109216,121508
109234,121541
109251,121512
109249,121522
109309,121529
109276,121533
109330,121523
109336,121559
109339,121536
109394,121601
109342,121581
109381,121556
109419,121619
109396,121590
109416,121587
109401,121619
109424,121585
109454,121607
109440,121604
109450,121594
109444,121619
109449,121595
109479,121628
109456,121624
109514,121601
109469,121647
109483,121591
109554,121674
109499,121645
109544,121636
109543,121654
109584,121646
109537,121639
109597,121664
109604,121700
109604,121699
109577,121668
109630,121712
109607,121693
109656,121676
109637,121721
109655,121667
109678,121740
109654,121698
109670,121742
109673,121721
109704,121724
109695,121764
109696,121708
109752,121774
109703,121721
109721,121756
109743,121769
109748,121748
109780,121791
109750,121783
109806,121804
109794,121763
109835,121787
109814,121798
109822,121776
109840,121809
109820,121784
109872,121790
109838,121844
109854,121772
109892,121825
109863,121800
109884,121827
109913,121849
109907,121830
109897,121813
109925,121871
109915,121843
109972,121869
109925,121851
109976,121839
109964,121863
109983,121884
109967,121867
110021,121901
109997,121919
110018,121854
110054,121898
109996,121877
110045,121896
110037,121905
110065,121928
110059,121896
110116,121901
110079,121925
110086,121914
110138,121941
110065,121949
110136,121930
110144,121958
110112,121923
110157,121979
110137,121961
110192,121947
110167,121970
110163,121928
110216,121989
110216,121972
110189,121959
110225,121987
110206,121982
110225,121994
110253,121995
110253,122020
110219,122014
110254,121965
110266,122023
110247,121970
110255,122018
110234,121987
110257,121951
110168,121977
110080,121854
110002,121844
109855,121756
109725,121632
109529,121546
109278,121428
109097,121304
108859,121212
108682,121074
108541,121010
108342,120896
108210,120890
108051,120761
107960,120738
107813,120662
107724,120582
107644,120574
107524,120498
107526,120479
107447,120461
107383,120419
107382,120451
107375,120409
107394,120408
107348,120438
107351,120434
107416,120463
107361,120446
107424,120446
107443,120491
107443,120457
107463,120515
107472,120471
107531,120515
107526,120548
107542,120514
107573,120542
107585,120523
107606,120595
107639,120575
107588,120578
107633,120596
107613,120593
107655,120600
107623,120581
107675,120618
107673,120586
107657,120603
107703,120603
107673,120621
107695,120633
107713,120631
107731,120655
107771,120656
107808,120686
107838,120684
107883,120732
107912,120743
107977,120766
108020,120789
108096,120830
108077,120864
108119,120854
108196,120876
108229,120943
108274,120948
108239,120977
108279,120914
108337,120987
108304,120963
108331,120967
108343,120961
108316,120974
108355,120957
108346,121006
108365,120995
108329,121003
108307,120925
108353,120993
108296,120975
108298,120930
108328,120962
108305,120924
108279,120978
108262,120936
108299,120931
108302,120937
108297,120917
108284,120957
108326,120943
108285,120955
108328,120991
108326,120943
108392,120983
108332,121010
108391,120992
108423,121051
108464,121015
108510,121070
108490,121070
108584,121101
108577,121107
108601,121085
108653,121181
108657,121148
108712,121189
108743,121174
108770,121240
108819,121230
108820,121255
108835,121272
108913,121272
108891,121285
108954,121300
108942,121327
109000,121309
109018,121354
109008,121325
109074,121359
109061,121392
109074,121358
109132,121399
109093,121378
109148,121422
109100,121402
109150,121426
109143,121429
109215,121413
109203,121463
109190,121409
109226,121468
109194,121464
109239,121422
109237,121472
109274,121415
109230,121459
109265,121446
109300,121441
109307,121496
109285,121497
109313,121490
109287,121445
109359,121496
109341,121504
109353,121492
109386,121514
109344,121536
109345,121490
109391,121542
109355,121525
109405,121527
109413,121563
109405,121499
109428,121562
109404,121501
109454,121558
109409,121591
109451,121549
109422,121540
109478,121568
109447,121565
109480,121543
109449,121548
109487,121562
109487,121623
109488,121568
109538,121577
109488,121611
109524,121568
109563,121624
109530,121593
109582,121611
109565,121613
109582,121602
109567,121634
109580,121627
109612,121665
109633,121635
109652,121651
109615,121635
109661,121686
109631,121675
109687,121669
109679,121702
109700,121661
109694,121712
109720,121657
109752,121715
109728,121699
109773,121684
109794,121724
109768,121729
109776,121746
109767,121725
109807,121720
109817,121746
109812,121715
109870,121752
109850,121770
109856,121741
109874,121772
109857,121767
109887,121791
109890,121798
109925,121765
109910,121802
109903,121765
109965,121827
109941,121796
109956,121803
109972,121793
109971,121829
109956,121811
109996,121790
110029,121839
109995,121849
110010,121812
110039,121865
110002,121835
110059,121842
110036,121848
110064,121817
110078,121872
110059,121859
110118,121852
110086,121896
110109,121875
110141,121869
110107,121885
110138,121904
110125,121896
110143,121858
110164,121924
110130,121879
110191,121937
110191,121906
110179,121926
110175,121880
110205,121924
110204,121926
110220,121915
110252,121973
110206,121924
110243,121912
110277,121960
110269,121952
110239,121943
110236,121918
110220,121934
110158,121867
110131,121841
110000,121818
109907,121713
109797,121680
109607,121508
109418,121450
109170,121297
109021,121208
108798,121142
108680,121005
108563,121001
108450,120910
108345,120868
108253,120843
108130,120776
108086,120760
108053,120694
107980,120717
107900,120657
107943,120672
107877,120686
107888,120610
107901,120670
107874,120643
107932,120682
107943,120715
107970,120688
107994,120744
108037,120733
108067,120785
108147,120823
108184,120839
108209,120874
108280,120858
108290,120912
108337,120905
108381,120977
108425,120979
108448,121017
108502,121006
108595,121047
108554,121048
108641,121065
108644,121128
108663,121073
108685,121122
108743,121123
108736,121139
108750,121146
108794,121148
108788,121207
108831,121167
108879,121220
108889,121196
108957,121252
108957,121291
108999,121263
109062,121322
109060,121299
109108,121355
109146,121348
109145,121372
109194,121374
109202,121411
109234,121421
109222,121396
109250,121425
109222,121447
109227,121374
109236,121412
109181,121418
109186,121372
109167,121390
109109,121314
109109,121328
109057,121307
109084,121300
108990,121298
108979,121216
108955,121232
108925,121221
108875,121217
108900,121201
108846,121165
108853,121173
108811,121170
108835,121195
108836,121167
108860,121198
108819,121170
108843,121167
108856,121199
108870,121166
108900,121240
108908,121233
108961,121216
108969,121258
108963,121244
109005,121283
109021,121306
109038,121317
109071,121287
109134,121351
109102,121324
109178,121330
109138,121378
109212,121361
109232,121446
109224,121388
109301,121413
109271,121447
109292,121441
109329,121432
109365,121450
109368,121454
109405,121465
109415,121492
109386,121488
109460,121510
109451,121542
109460,121476
109486,121545
109479,121545
109509,121537
109507,121574
109526,121530
109533,121558
109508,121553
109571,121565
109540,121596
109544,121551
109566,121586
109561,121562
109574,121594
109586,121571
109589,121572
109580,121606
109631,121573
109614,121615
109600,121578
109651,121628
109596,121608
109643,121583
109637,121625
109622,121590
109653,121640
109611,121600
109692,121599
109415,121492
109645,121614
109694,121628
109668,121639
109652,121602
109699,121634
109662,121628
109704,121627
109679,121648
109703,121601
109703,121652
109683,121632
109734,121668
109705,121650
109740,121657
109723,121665
109725,121628
109762,121667
109786,121660
109761,121654
109760,121646
109823,121698
109767,121662
109834,121680
109801,121707
109832,121662
109851,121711
109818,121692
109875,121695
109825,121725
109843,121694
109878,121731
109871,121695
109889,121726
109906,121732
109905,121720
109903,121734
109893,121714
109927,121744
109909,121735
109920,121722
109970,121773
109940,121750
109956,121748
109961,121776
109960,121727
109984,121772
109961,121762
109991,121752
109986,121796
109984,121767
110010,121772
110008,121788
110024,121775
109983,121811
109988,121786
110052,121777
110022,121824
110018,121772
110071,121784
110009,121828
110050,121778
110078,121792
110054,121794
110031,121810
110066,121788
110059,121840
110031,121789
110089,121801
110073,121823
110094,121801
110088,121826
110079,121786
110106,121805
110081,121851
110110,121815
110122,121867
110090,121800
110151,121825
110108,121853
110120,121816
110164,121869
110130,121825
110170,121848
110134,121850
110172,121822
110178,121867
110168,121867
110223,121877
110194,121864
110197,121833
110219,121893
110199,121859
110224,121874
110189,121875
110203,121853
110174,121870
110124,121810
110116,121814
109983,121753
109908,121666
109767,121615
109574,121482
109351,121380
109155,121261
108960,121165
108810,121066
108615,120985
108402,120845
108306,120797
108127,120740
108009,120617
107896,120552
107745,120511
107637,120420
107582,120438
107460,120387
107400,120323
107381,120349
107328,120305
107307,120310
107295,120311
107270,120285
107280,120322
107292,120291
107344,120315
107293,120344
107319,120295
107351,120368
107369,120336
107410,120358
107381,120381
107451,120373
107419,120434
107460,120395
107493,120431
107489,120399
107513,120445
107531,120453
107540,120426
107519,120448
107557,120439
107603,120486
107563,120432
107575,120491
107565,120450
107581,120451
107582,120486
107558,120425
107598,120472
107562,120506
107598,120487
107619,120515
107643,120468
107669,120523
107706,120537
107662,120534
107744,120590
107779,120577
107775,120569
107808,120619
107841,120596
107813,120607
107864,120635
107856,120600
107835,120626
107854,120611
107850,120609
107839,120606
107826,120582
107795,120584
107809,120578
107767,120571
107765,120556
107760,120548
107721,120550
107712,120531
107686,120516
107671,120498
107695,120501
107627,120510
107628,120480
107658,120505
107635,120519
107649,120486
107641,120519
107623,120476
107691,120515
107616,120494
107656,120525
107668,120497
107706,120507
107694,120479
107751,120562
107709,120539
107771,120548
107788,120594
107794,120571
107834,120608
107843,120626
107906,120622
107900,120670
107940,120638
107983,120701
107967,120665
108038,120714
108058,120711
108065,120747
108129,120745
108166,120763
108137,120814
108187,120803
108212,120801
108281,120851
108250,120828
108339,120871
108303,120882
108352,120861
108392,120912
108380,120906
108443,120925
108444,120949
108479,120935
108474,120956
108485,120982
108525,120961
108538,120967
108552,120986
108549,120988
108592,120987
108595,121025
108600,121020
108662,121065
108626,121025
108672,121023
108651,121052
108698,121046
108683,121082
108719,121073
108700,121091
108719,121071
108755,121095
108770,121092
108763,121090
108736,121116
108788,121077
108771,121118
108758,121091
108823,121142
108792,121132
108810,121101
108833,121134
108816,121102
108832,121141
108821,121149
108888,121126
108855,121182
108859,121139
108902,121174
108916,121136
108886,121171
108937,121201
108979,121216
108966,121193
108959,121171
109019,121232
108986,121233
109006,121225
109011,121241
109021,121225
109068,121252
109039,121262
109103,121248
109108,121308
109110,121271
109152,121293
109156,121311
109204,121304
109240,121324
109208,121327
109262,121348
109272,121381
109262,121333
109324,121375
109289,121424
109337,121395
109376,121440
109373,121395
109403,121428
109421,121419
109424,121477
109414,121445
109466,121474
109462,121464
109479,121495
109501,121479
109518,121512
109499,121485
109525,121518
109545,121495
109565,121540
109558,121488
109594,121542
109585,121553
109606,121515
109615,121554
109591,121529
109674,121563
109611,121581
109650,121548
109652,121558
109698,121588
109684,121567
109698,121603
109717,121563
109722,121593
109716,121625
109752,121584
109760,121631
109729,121597
109796,121625
109763,121665
109768,121587
109817,121634
109767,121652
109816,121623
109802,121664
109824,121641
109807,121634
109846,121686
109844,121656
109850,121661
109851,121639
109879,121722
109850,121647
109888,121688
109857,121700
109920,121694
109859,121675
109862,121693
109837,121658
109854,121626
109796,121649
109710,121586
109677,121541
109558,121500
109414,121371
109266,121296
109017,121209
108844,121039
108685,120990
108456,120861
108322,120780
108162,120727
107999,120577
107843,120531
107648,120394
107552,120361
107356,120295
107279,120222
107175,120200
107084,120142
107045,120096
106981,120076
106935,120067
106972,120073
106922,120031
106919,120063
106910,120071
106928,120025
106942,120099
106910,120054
106969,120069
106946,120106
106976,120081
107016,120105
106998,120126
107034,120127
107059,120183
107039,120132
107066,120155
107117,120169
107105,120192
107105,120163
107164,120208
107100,120205
107147,120198
107163,120197
107123,120214
107171,120195
107195,120243
107136,120198
107160,120202
107164,120237
107183,120193
107182,120217
107198,120225
107198,120237
107209,120211
107258,120247
107258,120285
107259,120227
107331,120292
107286,120295
107366,120304
107348,120352
107398,120323
107422,120383
107428,120337
107473,120383
107458,120406
107476,120376
107445,120390
107467,120400
107477,120359
107435,120366
107421,120335
107434,120328
107359,120308
107366,120344
107335,120331
107328,120266
107299,120278
107269,120253
107286,120241
107264,120264
107214,120218
107268,120248
107220,120263
107221,120202
107229,120225
107231,120221
107204,120252
107217,120188
107237,120220
107208,120257
107232,120195
107283,120251
107234,120235
107248,120258
107322,120278
107278,120285
107316,120268
107376,120319
107348,120302
107412,120308
107421,120378
107455,120355
107479,120374
107469,120369
107543,120417
107574,120405
107602,120447
107572,120397
107642,120454
107606,120495
107659,120473
107689,120524
107671,120460
107694,120489
107702,120509
107760,120510
107736,120498
107771,120543
107773,120541
107823,120549
107798,120543
107853,120561
107853,120599
107869,120580
107925,120629
107886,120569
107938,120608
107922,120638
107971,120608
107974,120657
107970,120636
108026,120637
107996,120693
107994,120627
108061,120678
108033,120653
108038,120670
108006,120669
108049,120686
108082,120691
108039,120708
108053,120698
108053,120682
108074,120673
108088,120715
108061,120683
108103,120682
108091,120725
108096,120704
108124,120753
108104,120711
108155,120687
108127,120753
108157,120758
108161,120772
108209,120765
108182,120747
108204,120803
108175,120763
108281,120790
108238,120806
108269,120767
108316,120822
108286,120819
108330,120844
108340,120852
108398,120830
108369,120875
108390,120854
108420,120880
108434,120903
108458,120921
108534,120931
108523,120956
108568,120991
108550,120988
108603,120972
108638,121021
108631,120972
108683,121050
108683,121027
108726,121004
108705,121053
108728,121018
108797,121098
108775,121066
108805,121061
108849,121082
108822,121122
108827,121104
108854,121141
108881,121126
108890,121127
108928,121143
108905,121156
108969,121153
108984,121217
108996,121166
109008,121194
108991,121223
109058,121197
109083,121220
109073,121217
109145,121255
109110,121265
109161,121239
109160,121280
109200,121277
109251,121314
109230,121308
109275,121304
109260,121368
109295,121339
109332,121365
109324,121353
109387,121361
109348,121411
109352,121407
109382,121408
109423,121397
109474,121436
109445,121422
109465,121445
109485,121426
109499,121470
109502,121447
109541,121460
109577,121478
109559,121508
109601,121474
109594,121530
109590,121485
109656,121508
109597,121558
109612,121476
109630,121544
109585,121456
109549,121467
109471,121423
109433,121376
109305,121314
109123,121211
108919,121091
108715,120980
108487,120851
108358,120731
108113,120677
107920,120547
107813,120446
107604,120398
107415,120249
107285,120227
107113,120117
107045,120060
106911,120020
106856,119950
106788,119960
106771,119939
106735,119888
106722,119915
106726,119902
106699,119899
106726,119918
106715,119937
106730,119900
106760,119935
106746,119900
106795,119956
106808,119954
106810,119976
106804,119995
106876,119973
106878,120033
106881,120009
106897,120016
106906,120002
106910,119998
106933,120025
106921,120051
106963,120030
106965,120101
106948,120042
106997,120072
106968,120098
106970,120052
107005,120104
107003,120050
107053,120092
107035,120095
107094,120106
107068,120140
107123,120170
107157,120179
107193,120198
107208,120204
107272,120225
107292,120246
107354,120246
107374,120318
107390,120255
107457,120332
107415,120326
107464,120293
107484,120357
107447,120317
107465,120323
107449,120327
107454,120284
107430,120297
107418,120302
107364,120241
107343,120264
107352,120232
107329,120226
107304,120236
107235,120200
107243,120174
107235,120163
107187,120171
107158,120131
107202,120149
107153,120162
107163,120124
107159,120166
107137,120133
107149,120145
107153,120138
107182,120159
107179,120125
107194,120174
107169,120143
107229,120198
107232,120206
107244,120174
107303,120239
107277,120215
107331,120253
107360,120287
107404,120238
107421,120321
107412,120274
107496,120336
107501,120364
107562,120374
107558,120373
107589,120375
107598,120420
107649,120419
107668,120430
107725,120458
107712,120457
107749,120483
107795,120489
107789,120499
107848,120535
107871,120523
107858,120546
107931,120571
107941,120579
107963,120584
107975,120598
107988,120606
108020,120619
108020,120612
108042,120633
108092,120639
108044,120648
108104,120680
108110,120658
108148,120680
108157,120698
108155,120701
108196,120716
108193,120755
108187,120706
108238,120743
108241,120743
108252,120748
108268,120758
108282,120759
108289,120768
108291,120748
108350,120798
108295,120775
108360,120779
108341,120829
108367,120794
108429,120853
108388,120814
108405,120818
108417,120849
108444,120853
108452,120844
108517,120855
108484,120850
108508,120853
108496,120880
108512,120845
108545,120872
108518,120915
108558,120860
108590,120898
108530,120870
108607,120912
108589,120940
108636,120900
108626,120960
108624,120912
108694,120948
108646,120994
108683,120942
108705,120983
108705,120995
108706,120983
108760,120998
108795,121033
108787,121007
108792,121057
108793,121014
108841,121069
108815,121033
108858,121049
108869,121084
108873,121047
108921,121091
108902,121089
108941,121093
108952,121126
108960,121096
108971,121151
108986,121138
108963,121136
108994,121168
108992,121126
109058,121174
109013,121142
109054,121146
109047,121171
109079,121159
109083,121206
109077,121151
109131,121197
109115,121171
109140,121214
109118,121195
109140,121194
109185,121217
109202,121203
109239,121260
109200,121262
109251,121252
109257,121289
109257,121272
109320,121275
109285,121332
109323,121279
109380,121331
109358,121297
109405,121333
109408,121346
109441,121342
109422,121392
109461,121354
109489,121384
109486,121392
109489,121375
109446,121365
109493,121374
109459,121399
109382,121311
109344,121255
109241,121271
109087,121137
108937,121041
108726,120936
108539,120800
108351,120735
108131,120592
107994,120479
107785,120429
107620,120305
107453,120228
107286,120096
107138,120064
106975,119987
106906,119950
106778,119870
106766,119868
106657,119842
106634,119804
106605,119818
106588,119747
106561,119763
106568,119770
106578,119751
106578,119785
106538,119773
106568,119783
106560,119768
106617,119817
106602,119814
106605,119835
106621,119783
106649,119830
106631,119832
106687,119800
106651,119876
106684,119835
106724,119899
106694,119819
106712,119855
106694,119853
106725,119862
106677,119887
106685,119837
106675,119853
106639,119830
106690,119845
106633,119829
106656,119840
106596,119843
106624,119806
106652,119843
106602,119789
106648,119829
106677,119858
106672,119827
106699,119869
106695,119879
106761,119878
106753,119936
106763,119883
106773,119910
106801,119899
106782,119938
106824,119945
106828,119905
106813,119932
106767,119879
106796,119907
106730,119901
106737,119848
106724,119862
106703,119864
106651,119831
106619,119784
106635,119822
106578,119820
106589,119766
106573,119789
106543,119753
106504,119775
106479,119745
106506,119734
106456,119740
106457,119681
106468,119755
106433,119720
106458,119718
106439,119736
106439,119692
106463,119753
106434,119713
106504,119748
106471,119775
106503,119718
106506,119751
106509,119752
106558,119754
106523,119815
106553,119791
106614,119797
106640,119840
106613,119823
106689,119842
106699,119885
106751,119860
106757,119918
106747,119857
106830,119927
106825,119972
106870,119919
106929,119984
106905,119977
106936,120013
106919,119992
106998,120034
106953,119992
107034,120015
107010,120049
107021,120020
107023,120023
107078,120059
107036,120028
107111,120063
107103,120105
107108,120045
107173,120099
107127,120104
107139,120078
107178,120120
107202,120120
107184,120128
107235,120133
107218,120138
107238,120129
107275,120170
107262,120186
107330,120160
107312,120211
107307,120157
107362,120210
107325,120216
107370,120196
107387,120239
107382,120194
107380,120218
107405,120236
107402,120227
107393,120235
107427,120242
107433,120221
107475,120265
107426,120232
107450,120251
107475,120305
107471,120244
107507,120291
107473,120273
107520,120262
107524,120322
107501,120273
107573,120342
107495,120291
107532,120278
107561,120309
107579,120324
107547,120315
107555,120298
107575,120292
107581,120338
107607,120325
107605,120363
107627,120317
107658,120367
107656,120355
107682,120404
107677,120368
107696,120377
107706,120426
107769,120380
107744,120444
107759,120405
107785,120449
107763,120428
107811,120444
107797,120453
107820,120423
107835,120495
107819,120442
107867,120487
107842,120489
107936,120476
107893,120512
107900,120461
107959,120532
107965,120519
107978,120512
107965,120530
107996,120530
107997,120547
108034,120558
108052,120547
108043,120579
108061,120536
108073,120603
108090,120590
108149,120589
108136,120635
108157,120600
108182,120675
108182,120616
108210,120658
108205,120647
108292,120671
108259,120711
108302,120684
108354,120707
108385,120716
108379,120767
108454,120773
108484,120777
108487,120824
108504,120828
108537,120825
108547,120880
108579,120842
108656,120852
108625,120916
108629,120865
108686,120921
108647,120904
108682,120873
108669,120916
108666,120878
108648,120861
108627,120857
108568,120817
108521,120809
108357,120714
108282,120668
108114,120582
107996,120468
107790,120391
107585,120234
107414,120154
107172,120055
106968,119904
106794,119814
106613,119710
106467,119642
106320,119577
106162,119496
106098,119451
106016,119444
105908,119359
105913,119324
105819,119335
105796,119299
105778,119309
105711,119246
105721,119236
105675,119239
105677,119217
105649,119258
105629,119211
105684,119233
105615,119226
105632,119229
105651,119206
105635,119219
105661,119240
105636,119229
105629,119226
105662,119227
105624,119256
105605,119184
105630,119227
105576,119226
105588,119189
105612,119217
105553,119180
105559,119169
105537,119203
105558,119135
105534,119175
105527,119152
105505,119164
105530,119177
105529,119157
105499,119184
105479,119125
105532,119178
105501,119143
105563,119172
105542,119203
105623,119178
105599,119215
105674,119237
105664,119257
105681,119229
105756,119262
105751,119300
105798,119270
105777,119341
105782,119300
105823,119325
105774,119312
105794,119270
105827,119332
105771,119276
105766,119269
105747,119294
105739,119247
105716,119284
105691,119222
105722,119215
105628,119200
105667,119176
105648,119207
105652,119209
105642,119187
105589,119213
105635,119192
105598,119202
105645,119179
105584,119192
105624,119165
105626,119203
105602,119185
105648,119158
105631,119227
105635,119183
105693,119222
105646,119208
105682,119224
105706,119240
105713,119243
105762,119231
105752,119274
105800,119280
105791,119254
105860,119302
105826,119336
105863,119302
105903,119361
105931,119316
105928,119351
105966,119351
105969,119383
105986,119349
106051,119429
106004,119385
106036,119364
106070,119418
106106,119422
106103,119434
106070,119443
106146,119455
106126,119451
106167,119431
106157,119508
106149,119441
106217,119506
106199,119473
106226,119482
106204,119503
106267,119484
106255,119524
106250,119499
106296,119518
106296,119523
106291,119518
106328,119545
106319,119531
106335,119530
106383,119563
106344,119555
106371,119542
106401,119595
106385,119542
106413,119593
106382,119590
106442,119569
106427,119622
106415,119581
106481,119620
106437,119614
106480,119613
106492,119630
106504,119599
106522,119611
106540,119646
106561,119613
106547,119663
106537,119628
106523,119660
106593,119662
106572,119661
106596,119665
106549,119649
106595,119696
106616,119669
106574,119670
106612,119722
106622,119679
106612,119692
106629,119682
106637,119699
106685,119729
106693,119724
106697,119719
106734,119747
106714,119741
106747,119750
106729,119747
106773,119773
106802,119763
106795,119775
106849,119806
106840,119830
106854,119796
106885,119816
106903,119832
106930,119837
106895,119852
106947,119869
106917,119851
106988,119833
106960,119896
106953,119859
107017,119886
107015,119899
107015,119880
107065,119940
107065,119880
107104,119938
107070,119950
107134,119926
107153,119982
107170,119966
107182,119959
107221,120012
107220,119980
107250,120017
107286,120038
107303,119999
107328,120045
107302,120060
107315,120047
107346,120095
107330,120064
107383,120028
107388,120120
107377,120060
107442,120111
107409,120098
107436,120100
107443,120132
107451,120136
107480,120145
107513,120135
107562,120198
107569,120152
107610,120210
107598,120204
107681,120227
107672,120276
107690,120226
107772,120297
107736,120272
107747,120305
107791,120295
107810,120349
107812,120299
107857,120329
107850,120336
107871,120332
107820,120326
107815,120300
107844,120329
107753,120262
107746,120218
107630,120210
107515,120098
107391,120072
107221,119948
107070,119845
106863,119794
106618,119594
106469,119521
106208,119393
106044,119307
105874,119194
105750,119142
105577,119044
105479,119016
105421,118970
105295,118916
105240,118848
105154,118882
105097,118796
105088,118812
105006,118778
104998,118739
104977,118764
104908,118722
104940,118737
104899,118723
104904,118721
104913,118717
104862,118700
104896,118693
104904,118736
104845,118690
104878,118704
104862,118723
104885,118667
104869,118720
104845,118681
104901,118713
104828,118697
104863,118681
104852,118672
104846,118676
104811,118701
104808,118653
104780,118643
104776,118627
104781,118638
104770,118644
104747,118636
104783,118608
104755,118656
104739,118590
104775,118655
104748,118633
104811,118623
104835,118674
104809,118650
104859,118709
104866,118685
104949,118710
104938,118731
104979,118747
105027,118758
105021,118752
105057,118802
105064,118797
105107,118790
105043,118810
105039,118747
105072,118803
105016,118769
105029,118731
105015,118762
104980,118700
104986,118752
104956,118711
104960,118691
104912,118702
104927,118649
104913,118671
104865,118660
104875,118695
104853,118639
104896,118642
104855,118666
104879,118625
104905,118682
104877,118634
104888,118656
104886,118631
104923,118671
104942,118665
104945,118684
104922,118655
104982,118697
105004,118697
105018,118725
105024,118734
105048,118717
105064,118757
105092,118742
105138,118785
105139,118770
105210,118803
105198,118848
105249,118812
105304,118882
105314,118852
105357,118879
105371,118912
105411,118888
105424,118956
105423,118941
105507,118959
105477,118985
105533,118972
105541,118976
105562,118989
105597,119024
105608,119013
105646,119016
105611,119006
105678,119025
105686,119099
105680,119038
105776,119073
105719,119110
105780,119070
105834,119145
105810,119125
105835,119162
105868,119122
105917,119157
105893,119199
105907,119167
105967,119160
105972,119225
105979,119168
106021,119249
106050,119246
106024,119253
106035,119224
106085,119237
106076,119283
106104,119252
106106,119285
106110,119243
106134,119295
106124,119269
106123,119270
106158,119266
106139,119306
106158,119264
106159,119325
106156,119260
106180,119294
106158,119284
106211,119279
106187,119332
106202,119299
106260,119354
106252,119290
106278,119363
106268,119340
106303,119369
106329,119357
106336,119369
106348,119409
106307,119374
106402,119379
106378,119435
106383,119396
106463,119441
106414,119412
106467,119429
106475,119482
106513,119450
106532,119480
106525,119463
106597,119499
106588,119545
106618,119529
106638,119533
106642,119529
106687,119562
106716,119551
106751,119605
106749,119640
106822,119607
106815,119635
106845,119658
106824,119645
106893,119648
106886,119695
106909,119672
106946,119706
