
0
0
0
0
0
0
0
0
0
0
0
0
0
0
0
0
0
0
0
0
0
0
0
0
0
0
0
0
0
0
0
0
0
0
0
0
0
0
0
0
0
0
0
0
0
0
0
0
0
0
0
0
0
0
0
0
0
0
0
0
0
0
0
0
0
0
0
0
0
0
0
0
0
0
0
0
0
0
0
0
0
0
0
0
0
0
0
0
0
0
0
0
0
0
0
0
0
0
0
0
0
0
0
0
0
0
0
0
0
0
0
0
0
0
0
0
0
0
0
0
0
0
0
0
0
0
0
0
0
0
0
0
0
0
0
0
0
0
0
0
0
0
0
0
0
0
0
0
0
0
0
0
0
0
0
0
0
0
0
0
0
0
0
0
0
0
0
0
0
0
0
0
0
0
0
0
0
0
0
0
0
0
0
0
0
0
0
0
0
0
0
0
0
0
0
0
0
0
0
0
0
0
0
0
0
0
0
0
0
0
0
0
0
0
0
0
0
0
0
0
0
0
0
0
0
0
0
0
0
0
0
0
0
0
0
0
0
0
0
0
0
0
0
0
0
0
0
0
0
0
0
0
0
0
0
0
0
0
0
0
0
0
0
0
0
0
0
0
0
0
0
0
0
0
0
0
0
0
0
0
0
0
0
0
0
0
0
0
0
0
0
0
0
0
0
0
0
0
0
0
0
0
0
0
0
0
0
0
0
0
0
0
0
0
0
0
0
0
0
0
0
0
0
0
0
0
0
0
0
0
0
0
0
0
0
0
0
0
0
0
0
0
0
0
0
0
0
0
0
0
0
0
0
0
0
0
0
0
0
0
0
0
0
0
0
0
0
0
0
0
0
0
0
0
0
0
0
0
0
0
0
0
0
0
0
0
0
0
0
0
0
0
0
0
0
0
0
0
0
0
0
0
0
0
0
0
0
0
0
0
0
0
0
0
0
0
0
0
0
0
0
0
0
0
0
0
0
0
0
0
0
0
0
0
0
0
0
0
0
0
0
0
0
0
0
0
0
0
0
0
0
0
0
0
0
0
0
0
0
0
0
0
0
0
0
0
0
0
0
0
0
0
0
0
0
0
0
0
0
0
0
0
0
0
0
0
0
0
0
0
0
0
0
0
0
0
0
0
0
0
0
0
0
0
0
0
0
0
0
0
0
0
0
0
0
0
0
0
0
0
0
0
0
0
0
0
0
0
0
0
0
0
0
0
0
0
0
0
0
0
0
0
0
0
0
0
0
0
0
0
0
0
0
0
0
0
0
0
0
0
0
0
0
0
0
0
0
0
0
0
0
0
0
0
0
0
0
0
0
0
0
0
0
0
0
0
0
0
0
0
0
0
0
0
0
0
0
0
0
0
0
0
0
0
0
0
0
0
0
0
0
0
0
0
0
0
0
0
0
0
0
0
0
0
0
0
0
0
0
0
0
0
0
0
0
0
0
0
0
0
0
0
0
0
0
0
0
0
0
0
0
0
0
0
0
0
0
0
0
0
0
0
0
0
0
0
0
0
0
0
0
0
0
0
0
0
0
0
0
0
0
0
0
0
0
0
0
0
0
0
0
0
0
0
0
0
0
0
0
0
0
0
0
0
0
0
0
0
0
0
0
0
0
0
0
0
0
0
0
0
0
0
0
0
0
0
0
0
0
0
0
0
0
0
0
0
0
0
0
0
0
0
0
0
0
0
0
0
0
0
0
0
0
0
0
0
0
0
0
0
0
0
0
0
0
0
0
0
0
0
0
0
0
0
0
0
0
0
0
0
0
0
0
0
0
0
0
0
0
0
0
0
0
0
0
0
0
0
0
0
0
0
0
0
0
0
0
0
0
0
0
0
0
0
0
0
0
0
0
0
0
0
0
0
0
0
0
0
0
0
0
0
0
0
0
0
0
0
0
0
0
0
0
0
0
0
0
0
0
0
0
0
0
0
0
0
0
0
0
0
0
0
0
0
0
0
0
0
0
0
0
0
0
0
0
0
0
0
0
0
0
0
0
0
0
0
0
0
0
0
0
0
0
0
0
0
0
0
0
0
0
0
0
0
0
0
0
0
0
0
0
0
0
0
0
0
0
0
0
0
0
0
0
0
0
0
0
0
0
0
0
0
0
0
0
0
0
0
0
0
0
0
0
0
0
0
0
0
0
0
0
0
0
0
0
0
0
0
0
0
0
0
0
0
0
0
0
0
0
0
0
0
0
0
0
0
0
0
0
0
0
0
0
0
0
0
0
0
0
0
0
0
0
0
0
0
0
0
0
0
0
0
0
0
0
0
0
0
0
0
0
0
0
0
0
0
0
0
0
0
0
0
0
0
0
0
0
0
0
0
0
0
0
0
0
0
0
0
0
0
0
0
0
0
0
0
0
0
0
0
0
0
0
0
0
0
0
0
0
0
0
0
0
0
0
0
0
0
0
0
0
0
0
0
0
0
0
0
0
0
0
0
0
0
0
0
0
0
0
0
0
0
0
0
0
0
0
0
0
0
0
0
0
0
0
0
0
0
0
0
0
0
0
0
0
0
0
0
0
0
0
0
0
0
0
0
0
0
0
0
0
0
0
0
0
0
0
0
0
0
0
0
0
0
0
0
0
0
0
0
0
0
0
0
0
0
0
0
0
0
0
0
0
0
0
0
0
0
0
0
0
0
0
0
0
0
0
0
0
0
0
0
0
0
0
0
0
0
0
0
0
0
0
0
0
0
0
0
0
0
0
0
0
0
0
0
0
0
0
0
0
0
0
0
0
0
0
0
0
0
0
0
0
0
0
0
0
0
0
0
0
0
0
0
0
0
0
0
0
0
0
0
0
0
0
0
0
0
0
0
0
0
0
0
0
0
0
0
0
0
0
0
0
0
0
0
0
0
0
0
0
0
0
0
0
0
0
0
0
0
0
0
0
0
0
0
0
0
0
0
0
0
0
0
0
0
0
0
0
0
0
0
0
0
0
0
0
0
0
0
0
0
0
0
0
0
0
0
0
0
0
0
0
0
0
0
0
0
0
0
0
0
0
0
0
0
0
0
0
0
0
0
0
0
0
0
0
0
0
0
0
0
0
0
0
0
0
0
0
0
0
0
0
0
0
0
0
0
0
0
0
0
0
0
0
0
0
0
0
0
0
0
0
0
0
0
0
0
0
0
0
0
0
0
0
0
0
0
0
0
0
0
0
0
0
0
0
0
0
0
0
0
0
0
0
0
0
0
0
0
0
0
0
0
0
0
0
0
0
0
0
0
0
0
0
0
0
0
0
0
0
0
0
0
0
0
0
0
0
0
0
0
0
0
0
0
0
0
0
0
0
0
0
0
0
0
0
0
0
0
0
0
0
0
0
0
0
0
0
0
0
0
0
0
0
0
0
0
0
0
0
0
0
0
0
0
0
0
0
0
0
0
0
0
0
0
0
0
0
0
0
0
0
0
0
0
0
0
0
0
0
0
0
0
0
0
0
0
0
0
0
0
0
0
0
0
0
0
0
0
0
0
0
0
0
0
0
0
0
0
0
0
0
0
0
0
0
0
0
0
0
0
0
0
0
0
0
0
0
0
0
0
0
0
0
0
0
0
0
0
0
0
0
0
0
0
0
0
0
0
0
0
0
0
0
0
0
0
0
0
0
0
0
0
0
0
0
0
0
0
0
0
0
0
0
0
0
0
0
0
0
0
0
0
0
0
0
0
0
0
0
0
0
0
0
0
0
0
0
0
0
0
0
0
0
0
0
0
0
0
0
0
0
0
0
0
0
0
0
0
0
0
0
0
0
0
0
0
0
0
0
0
0
0
0
0
0
0
0
0
0
0
0
0
0
0
0
0
0
0
0
0
0
0
0
0
0
0
0
0
0
0
0
0
0
0
0
0
0
0
0
0
0
0
0
0
0
0
0
0
0
0
0
0
0
0
0
0
0
0
0
0
0
0
0
0
0
0
0
0
0
0
0
0
0
0
0
0
0
0
0
0
0
0
0
0
0
0
0
0
0
0
0
0
0
0
0
0
0
0
0
0
0
0
0
0
0
0
0
0
0
0
0
0
0
0
0
0
0
0
0
0
0
0
0
0
0
0
0
0
0
0
0
0
0
0
0
0
0
0
0
0
0
0
0
0
0
0
0
0
0
0
0
0
0
0
0
0
0
0
0
0
0
0
0
0
0
0
0
0
0
0
0
0
0
0
0
0
0
0
0
0
0
0
0
0
0
0
0
0
0
0
0
0
0
0
0
0
0
0
0
0
0
0
0
0
0
0
0
0
0
0
0
0
0
0
0
0
0
0
0
0
0
0
0
0
0
0
0
0
0
0
0
0
0
0
0
0
0
0
0
0
0
0
0
0
0
0
0
0
0
0
0
0
0
0
0
0
0
0
0
0
0
0
0
0
0
0
0
0
0
0
0
0
0
0
0
0
0
0
0
0
0
0
0
0
0
0
0
0
0
0
0
0
0
0
0
0
0
0
0
0
0
0
0
0
0
0
0
0
0
0
0
0
0
0
0
0
0
0
0
0
0
0
0
0
0
0
0
0
0
0
0
0
0
0
0
0
0
0
0
0
0
0
0
0
0
0
0
0
0
0
0
0
0
0
0
0
0
0
0
0
0
0
0
0
0
0
0
0
0
0
0
0
0
0
0
0
0
0
0
0
0
0
0
0
0
0
0
0
0
0
0
0
0
0
0
0
0
0
0
0
0
0
0
0
0
0
0
0
0
0
0
0
0
0
0
0
0
0
0
0
0
0
0
0
0
0
0
0
0
0
0
0
0
0
0
0
0
0
0
0
0
0
0
0
0
0
0
0
0
0
0
0
0
0
0
0
0
0
0
0
0
0
0
0
0
0
0
0
0
0
0
0
0
0
0
0
0
0
0
0
0
0
0
0
0
0
0
0
0
0
0
0
0
0
0
0
0
0
0
0
0
0
0
0
0
0
0
0
0
0
0
0
0
0
-1
0
-1
0
-1
0
-1
0
-2
2
-9
-22
-21
-25
-27
-32
-35
-40
-45
-49
-55
-62
-67
-72
-78
-86
-89
-95
-101
-107
-112
-118
-126
-131
-136
-144
-149
-154
-162
-167
-174
-179
-183
-190
-196
-202
-207
-215
-219
-224
-232
-235
-240
-248
-254
-259
-264
-270
-275
-280
-286
-292
-297
-304
-310
-315
-320
-326
-330
-337
-343
-348
-351
-359
-364
-368
-374
-378
-384
-390
-394
-401
-405
-411
-417
-420
-428
-432
-435
-441
-446
-454
-458
-462
-466
-474
-478
-483
-487
-494
-499
-502
-507
-512
-519
-522
-527
-531
-538
-543
-545
-552
-556
-561
-566
-570
-575
-580
-586
-590
-594
-600
-603
-610
-613
-616
-622
-629
-633
-635
-642
-646
-650
-654
-657
-663
-668
-673
-677
-684
-685
-690
-695
-699
-703
-708
-712
-716
-721
-727
-730
-734
-737
-743
-747
-751
-756
-759
-764
-768
-771
-776
-780
-784
-789
-794
-798
-802
-804
-808
-814
-819
-821
-826
-829
-835
-841
-841
-846
-850
-855
-859
-863
-866
-871
-873
-878
-882
-886
-888
-893
-898
-900
-905
-909
-912
-916
-919
-922
-926
-931
-935
-937
-942
-946
-950
-953
-958
-960
-965
-969
-972
-975
-980
-981
-985
-990
-993
-998
-1001
-1006
-1007
-1011
-1014
-1020
-1022
-1024
-1028
-1032
-1036
-1040
-1042
-1044
-1049
-1052
-1057
-1059
-1061
-1067
-1069
-1073
-1076
-1080
-1082
-1086
-1090
-1094
-1094
-1100
-1101
-1106
-1109
-1113
-1114
-1118
-1122
-1124
-1127
-1130
-1134
-1135
-1139
-1144
-1145
-1149
-1152
-1154
-1157
-1161
-1164
-1168
-1169
-1174
-1177
-1179
-1184
-1187
-1187
-1193
-1194
-1199
-1200
-1203
-1206
-1208
-1212
-1216
-1218
-1221
-1224
-1226
-1229
-1234
-1234
-1237
-1241
-1244
-1248
-1251
-1251
-1254
-1258
-1261
-1263
-1266
-1268
-1270
-1274
-1276
-1280
-1283
-1284
-1286
-1288
-1293
-1293
-1296
-1299
-1302
-1303
-1308
-1309
-1312
-1313
-1319
-1321
-1320
-1324
-1326
-1331
-1332
-1334
-1336
-1338
-1342
-1344
-1347
-1349
-1353
-1353
-1355
-1360
-1361
-1362
-1367
-1370
-1371
-1373
-1374
-1379
-1380
-1382
-1385
-1386
-1389
-1393
-1392
-1398
-1399
-1401
-1403
-1406
-1407
-1410
-1411
-1413
-1417
-1418
-1421
-1422
-1423
-1425
-1428
-1430
-1433
-1435
-1437
-1439
-1439
-1443
-1446
-1446
-1449
-1451
-1453
-1454
-1458
-1459
-1462
-1464
-1466
-1467
-1470
-1472
-1473
-1475
-1478
-1479
-1482
-1483
-1484
-1489
-1488
-1492
-1495
-1494
-1496
-1499
-1500
-1504
-1506
-1506
-1508
-1510
-1512
-1513
-1519
-1516
-1520
-1522
-1523
-1525
-1527
-1530
-1529
-1532
-1535
-1533
-1538
-1541
-1540
-1543
-1544
-1545
-1547
-1550
-1552
-1554
-1554
-1557
-1559
-1559
-1560
-1562
-1564
-1565
-1567
-1570
-1571
-1571
-1572
-1575
-1577
-1579
-1582
-1583
-1585
-1584
-1585
-1587
-1589
-1589
-1591
-1593
-1594
-1594
-1597
-1598
-1601
-1602
-1603
-1606
-1606
-1609
-1609
-1610
-1612
-1614
-1615
-1615
-1616
-1619
-1622
-1622
-1623
-1622
-1626
-1627
-1630
-1630
-1631
-1632
-1633
-1636
-1636
-1637
-1639
-1640
-1641
-1643
-1644
-1644€
-1647
-1647
-1649
-1651
-1652
-1653
-1652
-1655
-1659
-1658
-1660
-1661
-1661
-1662
-1664
-1666
-1667
-1668
-1668
-1669
-1672
-1673
-1674
-1676
-1676
-1676
-1681
-1681
-1682
-1682
-1681
-1685
-1684
-1686
-1687
-1689
-1690
-1692
-1693
-1693
-1695
-1695
-1696
-1697
-1699
-1698
-1700
-1702
-1702
-1704
-1705
-1704
-1706
-1706
-1707
-1708
-1709
-1710
-1709
-1711
-1714
-1714
-1715
-1717
-1718
-1719
-1719
-1721
-1721
-1721
-1723
-1723
-1724
-1727
-1728
-1728
-1727
-1728
-1731
-1732
-1731
-1734
-1734
-1735
-1736
-1735
-1736
-1739
-1739
-1739
-1740
-1740
-1742
-1742
-1742
-1743
-1744
-1745
-1746
-1745
-1745
-1749
-1749
-1750
-1750
-1751
-1751
-1753
-1753
-1753
-1754
-1755
-1756
-1756
-1757
-1759
-1758
-1759
-1760
-1760
-1761
-1761
-1763
-1762
-1764
-1764
-1763
-1764
-1764
-1765
-1767
-1767
-1768
-1768
-1770
-1771
-1770
-1770
-1773
-1772
-1773
-1774
-1776
-1775
-1775
-1776
-1776
-1778
-1777
-1780
-1780
-1779
-1782
-1780
-1781
-1781
-1782
-1783
-1784
-1784
-1785
-1783
-1786
-1785
-1788
-1788
-1790
-1789
-1791
-1789
-1789
-1790
-1791
-1791
-1792
-1792
-1791
-1793
-1791
-1795
-1795
-1794
-1795
-1794
-1795
-1796
-1797
-1797
-1797
-1797
-1798
-1797€
-1799
-1800
-1798
-1800
-1799
-1802
-1801
-1802
-1800
-1802
-1803
-1805
-1804
-1803
-1806
-1805
-1806
-1806
-1805
-1807
-1808
-1807
-1809
-1807
-1809
-1808
-1808
-1809
-1809
-1811
-1810
-1809
-1811
-1812
-1811
-1811
-1809
-1811
-1812
-1811
-1813
-1813
-1812
-1814
-1812
-1815
-1814
-1816
-1813
-1814
-1815
-1815
-1816
-1816
-1815
-1815
-1816
-1814
-1814
-1815
-1814
-1814
-1815
-1817
-1816
-1816
-1817
-1816
-1819
-1817
-1818
-1818
-1817
-1818
-1818
-1817
-1818
-1817
-1819
-1818
-1820
-1818
-1818
-1818
-1817
-1820
-1818
-1820
-1820
-1821
-1821
-1819
-1818
-1820
-1821
-1820
-1819
-1821
-1820
-1821
-1822
-1822
-1820
-1820
-1821
-1819
-1821
-1819
-1819
-1820
-1820
-1820
-1821
-1822
-1819
-1821
-1822
-1820
-1820
-1820
-1823
-1820
-1821
-1821
-1820
-1821
-1822
-1821
-1821
-1822
-1819
-1823
-1821
-1820
-1820
-1820
-1819
-1820
-1820
-1819
-1820
-1819
-1819
-1819
-1819
-1820
-1820
-1820
-1819
-1820
-1819
-1819
-1819
-1820
-1820
-1819
-1819
-1820
-1818
-1819
-1821
-1818
-1819
-1818
-1817
-1819
-1817
-1818
-1818
-1816
-1817
-1818
-1817
-1817
-1819
-1817
-1815
-1816
-1816
-1816
-1815
-1815
-1817
-1816
-1815
-1815
-1815
-1815
-1815
-1816
-1813
-1813€
-1814
-1814
-1813
-1812
-1813
-1814
-1812
-1814
-1813
-1811
-1812
-1813
-1812
-1811
-1810
-1810
-1812
-1811
-1811
-1809
-1808
-1809
-1808
-1810
-1809
-1807
-1808
-1808
-1807
-1807
-1807
-1806
-1806
-1806
-1806
-1807
-1803
-1805
-1805
-1804
-1804
-1805
-1804
-1804
-1803
-1804
-1802
-1802
-1802
-1802
-1801
-1801
-1801
-1801
-1801
-1801
-1802
-1802
-1801
-1800
-1800
-1798
-1800
-1800
-1799
-1798
-1799
-1797
-1797
-1796
-1796
-1797
-1795
-1795
-1795
-1796
-1796
-1794
-1793
-1793
-1792
-1793
-1793
-1794
-1792
-1791
-1792
-1793
-1791
-1790
-1791
-1790
-1789
-1789
-1791
-1789
-1790
-1788
-1787
-1788
-1788
-1786
-1785
-1787
-1785
-1785
-1784
-1783
-1785
-1783
-1784
-1783
-1782
-1780
-1780
-1780
-1781
-1780
-1780
-1780
-1781
-1780
-1779
-1778
-1779
-1778
-1778
-1777
-1776
-1776
-1776
-1777
-1773
-1774
-1773
-1773
-1774
-1772
-1772
-1771
-1770
-1771
-1771
-1770
-1769
-1769
-1768
-1768
-1767
-1766
-1768
-1765
-1766
-1764
-1765
-1765
-1763
-1762
-1762
-1763
-1761
-1761
-1760
-1760
-1762
-1760
-1761
-1759
-1757
-1758
-1756
-1757
-1756
-1756
-1754
-1754
-1753
-1753
-1753
-1753
-1752
-1751
-1750
-1750
-1750
-1750
-1750
-1747
-1746
-1747
-1747
-1748€
-1747
-1747
-1746
-1744
-1744
-1743
-1743
-1743
-1741
-1742
-1740
-1741
-1741
-1740
-1737
-1738
-1739
-1737
-1737
-1736
-1734
-1734
-1735
-1731
-1734
-1732
-1730
-1733
-1732
-1730
-1731
-1729
-1731
-1730
-1727
-1729
-1727
-1726
-1725
-1725
-1724
-1724
-1723
-1723
-1722
-1720
-1720
-1720
-1721
-1718
-1718
-1719
-1717
-1717
-1717
-1715
-1716
-1715
-1714
-1713
-1713
-1711
-1712
-1713
-1710
-1709
-1709
-1710
-1710
-1709
-1707
-1707
-1707
-1707
-1705
-1704
-1703
-1705
-1702
-1701
-1702
-1702
-1700
-1699
-1698
-1698
-1697
-1698
-1698
-1696
-1697
-1694
-1696
-1694
-1694
-1690
-1691
-1692
-1691
-1690
-1689
-1688
-1689
-1690
-1688
-1688
-1685
-1685
-1683
-1684
-1683
-1682
-1682
-1681
-1683
-1679
-1680
-1678
-1678
-1679
-1676
-1677
-1676
-1676
-1674
-1674
-1673
-1674
-1674
-1672
-1670
-1671
-1669
-1669
-1668
-1668
-1667
-1668
-1666
-1665
-1665
-1666
-1663
-1662
-1663
-1661
-1661
-1660
-1659
-1658
-1659
-1657
-1658
-1656
-1656
-1656
-1655
-1653
-1654
-1652
-1651
-1651
-1650
-1652
-1650
-1648
-1648
-1647
-1648
-1645
-1645
-1645
-1644
-1644
-1644
-1642
-1641
-1641
-1640
-1642
-1639
-1639
-1638
-1638
-1637
-1637
-1634
-1633
-1633
-1634
-1632
-1633€
-1631
-1630
-1630
-1629
-1629
-1628
-1627
-1627
-1625
-1625
-1625
-1623
-1623
-1623
-1621
-1621
-1620
-1620
-1619
-1619
-1618
-1619
-1617
-1616
-1615
-1614
-1613
-1613
-1612
-1612
-1611
-1610
-1607
-1609
-1608
-1606
-1605
-1607
-1607
-1603
-1604
-1603
-1602
-1600
-1599
-1599
-1598
-1597
-1597
-1597
-1595
-1594
-1594
-1595
-1592
-1592
-1591
-1592
-1591
-1591
-1587
-1589
-1586
-1587
-1587
-1586
-1585
-1583
-1582
-1581
-1583
-1580
-1581
-1580
-1578
-1578
-1577
-1576
-1576
-1576
-1575
-1575
-1572
-1572
-1572
-1570
-1570
-1569
-1567
-1567
-1567
-1566
-1564
-1565
-1564
-1565
-1563
-1561
-1561
-1560
-1560
-1559
-1558
-1559
-1559
-1556
-1556
-1555
-1555
-1552
-1553
-1552
-1552
-1551
-1550
-1549
-1548
-1548
-1547
-1545
-1546
-1544
-1545
-1543
-1542
-1542
-1541
-1538
-1538
-1538
-1537
-1537
-1535
-1534
-1535
-1534
-1532
-1532
-1530
-1530
-1531
-1528
-1530
-1528
-1527
-1528
-1526
-1525
-1525
-1525
-1523
-1520
-1521
-1521
-1520
-1518
-1518
-1518
-1518
-1516
-1516
-1515
-1515
-1513
-1513
-1510
-1512
-1510
-1509
-1509
-1508
-1508
-1508
-1505
-1505
-1504
-1504
-1503
-1501
-1501
-1501
-1501
-1499
-1499
-1496
-1496
-1496
-1494
-1493
-1493
-1494
-1492€
-1490
-1489
-1490
-1487
-1489
-1486
-1486
-1485
-1485
-1483
-1484
-1483
-1481
-1482
-1479
-1479
-1478
-1476
-1476
-1474
-1475
-1473
-1475
-1473
-1472
-1470
-1471
-1470
-1469
-1469
-1468
-1466
-1465
-1465
-1465
-1463
-1463
-1461
-1462
-1459
-1460
-1460
-1459
-1457
-1456
-1455
-1455
-1453
-1453
-1452
-1451
-1452
-1451
-1450
-1449
-1450
-1446
-1446
-1445
-1447
-1445
-1443
-1444
-1441
-1441
-1441
-1440
-1440
-1439
-1436
-1436
-1435
-1435
-1433
-1434
-1431
-1431
-1430
-1432
-1430
-1430
-1428
-1429
-1427
-1426
-1425
-1425
-1425
-1422
-1422
-1421
-1421
-1420
-1419
-1419
-1417
-1416
-1416
-1415
-1413
-1413
-1412
-1413
-1412
-1409
-1410
-1410
-1409
-1407
-1407
-1406
-1405
-1405
-1403
-1403
-1401
-1402
-1401
-1400
-1400
-1397
-1397
-1398
-1396
-1396
-1392
-1394
-1391
-1392
-1392
-1390
-1389
-1389
-1389
-1388
-1386
-1386
-1384
-1384
-1383
-1383
-1381
-1381
-1379
-1379
-1377
-1377
-1377
-1376
-1376
-1376
-1373
-1373
-1372
-1372
-1370
-1371
-1369
-1368
-1368
-1366
-1367
-1366
-1365
-1365
-1363
-1363
-1361
-1361
-1360
-1358
-1358
-1356
-1357
-1354
-1356
-1355
-1354
-1354
-1354
-1352
-1350
-1348
-1348
-1348
-1347
-1346
-1345
-1344
-1345
-1343
-1342€
-1340
-1341
-1339
-1340
-1338
-1338
-1337
-1337
-1335
-1334
-1334
-1331
-1331
-1332
-1333
-1332
-1329
-1329
-1328
-1326
-1327
-1326
-1325
-1324
-1322
-1321
-1322
-1320
-1321
-1321
-1317
-1319
-1316
-1316
-1316
-1314
-1313
-1314
-1314
-1311
-1311
-1310
-1308
-1310
-1309
-1308
-1306
-1307
-1306
-1306
-1303
-1302
-1303
-1301
-1301
-1300
-1299
-1300
-1298
-1297
-1294
-1295
-1292
-1293
-1293
-1294
-1291
-1291
-1289
-1289
-1287
-1288
-1287
-1286
-1285
-1285
-1282
-1282
-1282
-1280
-1280
-1279
-1278
-1278
-1279
-1276
-1276
-1274
-1275
-1272
-1273
-1271
-1272
-1270
-1269
-1268
-1267
-1266
-1267
-1266
-1265
-1263
-1263
-1263
-1261
-1261
-1260
-1259
-1259
-1257
-1258
-1256
-1257
-1256
-1254
-1256
-1252
-1251
-1252
-1249
-1250
-1249
-1248
-1249
-1247
-1246
-1245
-1245
-1243
-1243
-1242
-1240
-1242
-1240
-1238
-1239
-1238
-1236
-1238
-1236
-1234
-1234
-1233
-1233
-1231
-1231
-1230
-1228
-1229
-1227
-1227
-1226
-1223
-1225
-1223
-1223
-1224
-1222
-1222
-1219
-1219
-1218
-1217
-1217
-1216
-1215
-1214
-1215
-1214
-1211
-1211
-1210
-1212
-1209
-1207
-1208
-1205
-1204
-1206
-1204
-1203
-1202
-1202
-1200
-1201
-1201
-1198
-1199
-1198
-1194
-1197
-1195€
-1195
-1194
-1193
-1191
-1192
-1191
-1190
-1191
-1189
-1187
-1186
-1187
-1185
-1185
-1183
-1184
-1183
-1183
-1182
-1180
-1179
-1179
-1179
-1178
-1178
-1177
-1177
-1175
-1175
-1175
-1172
-1170
-1172
-1170
-1171
-1169
-1167
-1168
-1166
-1165
-1165
-1164
-1163
-1162
-1162
-1160
-1160
-1158
-1157
-1158
-1157
-1157
-1156
-1154
-1155
-1153
-1154
-1154
-1150
-1150
-1150
-1150
-1149
-1149
-1147
-1147
-1145
-1145
-1144
-1143
-1143
-1142
-1141
-1139
-1139
-1138
-1138
-1136
-1136
-1137
-1136
-1135
-1135
-1132
-1132
-1131
-1130
-1131
-1129
-1129
-1128
-1127
-1126
-1125
-1124
-1123
-1124
-1121
-1122
-1122
-1121
-1118
-1117
-1119
-1119
-1117
-1115
-1114
-1113
-1113
-1113
-1112
-1110
-1110
-1109
-1108
-1109
-1108
-1106
-1106
-1106
-1106
-1104
-1105
-1103
-1101
-1101
-1099
-1098
-1097
-1098
-1098
-1097
-1097
-1095
-1095
-1093
-1092
-1092
-1091
-1090
-1090
-1089
-1087
-1087
-1087
-1087
-1085
-1084
-1085
-1083
-1083
-1081
-1082
-1080
-1081
-1080
-1077
-1076
-1077
-1075
-1075
-1073
-1072
-1073
-1073
-1071
-1070
-1070
-1067
-1069
-1068
-1066
-1067
-1066
-1065
-1064
-1065
-1062
-1061
-1060
-1060
-1060
-1059
-1060
-1058
-1056
-1056
-1056
-1056
-1053
-1055€
-1052
-1052
-1052
-1051
-1050
-1049
-1050
-1048
-1048
-1049
-1046
-1046
-1047
-1044
-1044
-1043
-1042
-1041
-1041
-1043
-1041
-1041
-1039
-1037
-1036
-1036
-1034
-1035
-1034
-1034
-1033
-1030
-1031
-1030
-1030
-1028
-1029
-1027
-1027
-1025
-1025
-1026
-1025
-1025
-1021
-1021
-1021
-1022
-1020
-1019
-1019
-1018
-1019
-1016
-1017
-1015
-1015
-1015
-1012
-1012
-1012
-1011
-1010
-1010
-1011
-1008
-1007
-1007
-1008
-1007
-1007
-1003
-1005
-1003
-1003
-1002
-1001
-1002
-998
-999
-998
-998
-996
-995
-996
-996
-996
-994
-993
-993
-992
-992
-991
-991
-989
-992
-989
-988
-987
-986
-985
-985
-983
-983
-981
-981
-981
-980
-979
-980
-978
-977
-977
-976
-976
-973
-975
-973
-973
-973
-971
-973
-970
-968
-970
-967
-968
-967
-966
-966
-963
-964
-964
-963
-962
-961
-962
-960
-960
-959
-958
-959
-957
-955
-956
-955
-954
-952
-952
-954
-951
-952
-951
-950
-949
-948
-948
-948
-947
-946
-944
-945
-944
-944
-942
-942
-942
-940
-940
-939
-939
-940
-938
-936
-937
-936
-936
-935
-935
-932
-932
-933
-931
-933
-930
-929
-929
-928
-929
-927
-925
-927
-925
-924
-924
-924
-923
-921
-921
-919
-918
-920
-917
-917
-917
-915
-916
-915
-915
-914
-912
-912
-911
-911
-911
-910
-911
-908
-907
-906
-906
-906
-906
-904
-904
-902
-901
-902
-900
-899
-900
-899
-898
-897
-896
-896
-896
-894
-895
-893
-894
-893
-892
-891
-891
-887
-889
-889
-887
-887
-887
-885
-885
-885
-882
-883
-881
-883
-882
-880
-879
-878
-879
-878
-876
-875
-875
-876
-875
-874
-872
-874
-871
-872
-872
-870
-869
-870
-867
-868
-869
-868
-866
-865
-863
-863
-864
-864
-861
-861
-863
-860
-861
-859
-859
-860
-857
-858
-857
-857
-857
-855
-854
-854
-853
-852
-854
-851
-848
-849
-849
-848
-847
-846
-845
-846
-846
-843
-844
-844
-843
-841
-841
-841
-839
-840
-840
-839
-839
-838
-837
-837
-835
-835
-834
-834
-833
-833
-831
-831
-831
-831
-830
-829
-829
-830
-826
-827
-826
-824
-826
-824
-823
-824
-822
-821
-822
-821
-820
-818
-819
-820
-819
-819
-817
-816
-815
-816
-814
-815
-813
-812
-812
-810
-811
-812
-811
-809
-808
-807
-809
-808
-805
-806
-806
-805
-805
-802
-804
-805
-801
-803
-802
-802
-798
-799
-798
-797
-798
-796
-797
-796
-794
-794
-794
-792
-792
-792
-790
-791
-791
-788
-787
-788
-787
-788
-786
-786
-785
-784
-786
-785
-783
-783
-782
-781
-780
-780
-779
-780
-778
-777
-778
-777
-776
-774
-774
-774
-773
-772
-771
-772
-770
-770
-772
-769
-768
-767
-766
-767
-765
-766
-766
-765
-765
-763
-762
-764
-761
-762
-762
-761
-760
-760
-758
-758
-758
-757
-758
-755
-755
-756
-753
-755
-755
-753
-753
-752
-750
-751
-750
-749
-748
-749
-749
-746
-747
-747
-747
-745
-744
-744
-744
-743
-741
-742
-742
-741
-743
-739
-738
-737
-738
-738
-739
-737
-736
-737
-735
-733
-735
-733
-732
-733
-731
-730
-730
-729
-730
-729
-730
-729
-727
-727
-726
-727
-726
-724
-725
-724
-722
-723
-722
-721
-722
-720
-719
-718
-719
-719
-716
-716
-715
-715
-715
-715
-713
-714
-713
-713
-712
-710
-710
-711
-710
-708
-708
-708
-708
-706
-705
-704
-705
-706
-704
-703
-705
-702
-701
-702
-703
-700
-699
-699
-699
-698
-700
-697
-696
-697
-695
-695
-695
-693
-693
-694
-693
-692
-693
-691
-691
-691
-690
-689
-688
-689
-686
-687
-686
-686
-687
-687
-685
-685
-684
-683
-684
-684
-681
-679
-681
-682
-678
-679
-679
-679
-675
-677
-677
-675
-675
-677
-674
-675
-674
-672
-672
-673
-672
-670
-671
-672
-668
-670
-669
-668
-667
-668
-667
-664
-666
-664
-666
-665
-664
-662
-662
-662
-662
-660
-662
-661
-660
-659
-657
-658
-657
-655
-655
-654
-656
-657
-654
-653
-655
-652
-652
-652
-651
-651
-650
-649
-647
-648
-649
-647
-645
-645
-645
-645
-643
-643
-642
-643
-643
-640
-642
-641
-640
-641
-641
-641
-638
-637
-638
-637
-636
-636
-634
-633
-635
-634
-634
-633
-633
-633
-632
-632
-632
-630
-629
-630
-628
-628
-630
-629
-628
-628
-627
-626
-625
-625
-624
-623
-621
-622
-622
-621
-620
-622
-621
-619
-618
-619
-618
-618
-617
-617
-615
-616
-616
-614
-615
-613
-613
-611
-613
-611
-612
-609
-610
-609
-610
-609
-609
-609
-608
-607
-606
-606
-605
-605
-603
-603
-605
-603
-602
-604
-602
-602
-601
-601
-600
-599
-599
-599
-599
-598
-597
-598
-598
-596
-597
-596
-593
-595
-594
-593
-593
-592
-591
-591
-591
-591
-590
-588
-589
-588
-588
-589
-587
-586
-586
-585
-585
-584
-583
-585
-581
-582
-582
-582
-580
-580
-580
-581
-580
-580
-581
-578
-577
-577
-576
-577
-577
-576
-576
-575
-575
-575
-574
-572
-572
-573
-571
-571
-571
-572
-570
-570
-570
-568
-568
-568
-569
-567
-568
-566
-567
-566
-564
-563
-564
-563
-563
-564
-564
-562
-563
-561
-561
-559
-559
-559
-558
-558
-559
-558
-558
-558
-557
-556
-556
-555
-555
-555
-552
-553
-553
-552
-553
-550
-550
-550
-548
-551
-550
-549
-549
-547
-547
-547
-546
-547
-547
-545
-546
-546
-543
-545
-545
-545
-543
-543
-543
-544
-542
-542
-541
-541
-540
-538
-539
-539
-537
-536
-537
-538
-536
-534
-534
-534
-534
-532
-533
-535
-533
-531
-532
-532
-531
-530
-528
-530
-529
-528
-528
-527
-527
-525
-526
-525
-525
-524
-524
-525
-524
-523
-521
-523
-521
-522
-520
-519
-521
-518
-520
-519
-518
-519
-518
-517
-518
-516
-515
-517
-516
-515
-515
-515
-512
-514
-511
-512
-514
-512
-511
-511
-511
-513
-512
-511
-509
-508
-508
-508
-507
-509
-507
-506
-507
-506
-504
-506
-505
-504
-505
-504
-502
-502
-502
-502
-500
-502
-499
-499
-500
-499
-499
-498
-499
-499
-497
-496
-496
-497
-498
-494
-495
-495
-494
-494
-493
-493
-493
-491
-492
-492
-492
-489
-491
-490
-489
-488
-489
-488
-488
-488
-487
-487
-487
-487
-484
-486
-485
-484
-486
-483
-482
-482
-483
-482
-481
-482
-481
-481
-479
-479
-479
-479
-480
-478
-477
-479
-478
-475
-476
-476
-475
-475
-475
-476
-473
-475
-473
-474
-472
-472
-472
-470
-471
-469
-470
-469
-468
-469
-469
-468
-469
-467
-466
-466
-467
-466
-465
-465
-464
-464
-465
-464
-463
-463
-461
-462
-460
-462
-459
-460
-460
-458
-460
-457
-458
-459
-457
-457
-457
-457
-458
-457
-456
-456
-454
-455
-455
-454
-455
-455
-453
-453
-453
-451
-452
-451
-451
-449
-450
-451
-450
-449
-449
-448
-447
-448
-446
-447
-446
-446
-448
-446
-446
-446
-446
-445
-444
-444
-442
-442
-442
-441
-443
-441
-442
-441
-440
-439
-440
-440
-437
-438
-437
-438
-438
-437
-436
-437
-437
-435
-435
-434
-434
-433
-434
-434
-433
-434
-433
-434
-433
-432
-432
-429
-430
-429
-431
-429
-429
-430
-428
-428
-428
-426
-427
-428
-427
-425
-426
-425
-425
-424
-424
-423
-423
-424
-424
-425
-422
-422
-422
-420
-422
-420
-420
-420
-419
-419
-419
-417
-417
-419
-418
-416
-418
-417
-418
-416
-416
-414
-413
-415
-414
-414
-412
-412
-411
-412
-412
-411
-412
-411
-411
-410
-411
-411
-409
-409
-409
-406
-408
-406
-407
-407
-407
-405
-405
-405
-404
-403
-406
-402
-403
-402
-403
-402
-400
-401
-400
-401
-400
-399
-400
-398
-399
-400
-399
-398
-398
-398
-397
-397
-397
-396
-397
-395
-395
-394
-395
-394
-396
-394
-393
-393
-392
-391
-392
-392
-390
-391
-391
-390
-391
-389
-387
-389
-388
-387
-387
-387
-387
-387
-386
-384
-386
-385
-385
-385
-384
-384
-383
-383
-382
-382
-382
-383
-383
-380
-381
-382
-379
-380
-381
-379
-380
-380
-378
-380
-378
-379
-380
-378
-377
-377
-375
-377
-376
-377
-375
-374
-377
-375
-374
-376
-374
-374
-373
-372
-374
-373
-374
-371
-371
-372
-371
-373
-371
-370
-371
-371
-370
-370
-369
-369
-369
-368
-368
-368
-367
-367
-366
-367
-366
-366
-366
-365
-367
-367
-364
-364
-364
-364
-364
-364
-364
-363
-361
-363
-361
-362
-362
-361
-359
-361
-359
-361
-360
-358
-360
-358
-359
-358
-356
-357
-358
-357
-357
-356
-355
-356
-355
-355
-354
-354
-354
-355
-352
-355
-353
-353
-353
-353
-353
-353
-351
-349
-352
-350
-349
-348
-349
-350
-349
-349
-349
-349
-349
-348
-347
-347
-346
-347
-346
-345
-345
-345
-346
-346
-344
-344
-343
-343
-343
-344
-341
-342
-342
-342
-340
-340
-341
-341
-341
-342
-339
-338
-339
-340
-340
-340
-339
-337
-338
-338
-337
-336
-336
-338
-336
-337
-335
-336
-335
-334
-335
-335
-334
-333
-332
-333
-332
-333
-332
-331
-332
-333
-329
-330
-329
-330
-329
-330
-329
-328
-327
-328
-327
-328
-328
-327
-327
-328
-328
-326
-327
-326
-323
-326
-324
-325
-325
-323
-324
-323
-323
-323
-322
-322
-321
-322
-322
-323
-321
-320
-322
-320
-320
-320
-319
-317
-319
-319
-319
-320
-317
-317
-317
-317
-317
-316
-317
-317
-315
-316
-315
-315
-315
-315
-314
-313
-314
-313
-312
-313
-313
-312
-313
-311
-311
-312
-311
-313
-310
-314
-311
-311
-311
-309
-310
-308
-309
-310
-308
-307
-307
-308
-306
-308
-307
-305
-307
-307
-307
-305
-306
-306
-305
-305
-304
-305
-304
-304
-304
-304
-302
-305
-302
-302
-304
-302
-301
-301
-301
-301
-300
-300
-300
-299
-299
-299
-299
-299
-299
-298
-298
-296
-297
-297
-296
-295
-297
-295
-296
-295
-295
-296
-295
-294
-294
-295
-294
-294
-295
-293
-292
-292
-292
-292
-292
-293
-291
-292
-292
-292
-290
-289
-291
-290
-290
-289
-291
-291
-287
-290
-288
-287
-287
-287
-288
-286
-288
-285
-285
-286
-287
-286
-284
-284
-284
-286
-285
-284
-284
-283
-284
-284
-283
-284
-282
-281
-283
-281
-282
-281
-280
-280
-281
-280
-279
-278
-279
-280
-278
-279
-277
-277
-279
-278
-277
-277
-276
-276
-276
-276
-276
-276
-277
-275
-276
-274
-275
-275
-274
-274
-272
-273
-274
-272
-271
-272
-272
-272
-272
-272
-272
-271
-270
-268
-270
-269
-269
-271
-268
-269
-266
-267
-266
-267
-267
-266
-267
-266
-268
-265
-264
-264
-265
-264
-265
-264
-263
-265
-263
-264
-262
-262
-261
-262
-262
-263
-262
-261
-262
-261
-261
-262
-260
-261
-260
-260
-261
-258
-259
-260
-259
-260
-260
-259
-260
-260
-258
-259
-256
-257
-258
-257
-257
-256
-257
-255
-258
-255
-256
-256
-255
-255
-255
-255
-255
-254
-253
-255
-253
-253
-254
-253
-253
-254
-252
-251
-253
-251
-251
-251
-251
-251
-251
-251
-251
-250
-248
-251
-249
-249
-249
-249
-248
-247
-248
-247
-247
-248
-247
-247
-247
-245
-245
-246
-246
-244
-245
-245
-245
-244
-243
-244
-246
-244
-242
-242
-243
-243
-243
-243
-242
-243
-242
-240
-239
-240
-241
-240
-241
-240
-241
-241
-239
-239
-240
-240
-238
-239
-238
-238
-239
-238
-239
-238
-236
-236
-237
-237
-235
-237
-235
-235
-235
-235
-235
-234
-234
-236
-233
-233
-234
-233
-235
-234
-232
-231
-232
-231
-234
-232
-234
-229
-235
-228
-238
-240
-1074
-618
-423
-970
-1418
-1378
-841
-438
-678
-1296
-1620
-1307
-651
-378
-798
-1426
-1471
-913
-434
-562
-1160
-1564
-1283
-675
-422
-767
-1277
-1342
-838
-316
-466
-1039
-1457
-1231
-634
-432
-783
-1247
-1370
-961
-446
-447
-1071
-1598
-1342
-647
-215
-542
-1170
-1339
-914
-338
-371
-943
-1395
-1257
-719
-389
-571
-1110
-1396
-1035
-303
-340
-983
-1558
-1376
-694
-254
-508
-1099
-1284
-990
-483
-328
-773
-1311
-1334
-732
-224
-495
-1075
-1371
-987
-371
-279
-895
-1414
-1335
-689
-233
-471
-1091
-1354
-995
-448
-291
-700
-1274
-1378
-747
-172
-393
-1023
-1350
-1006
-321
-158
-742
-1321
-1318
-743
-171
-183
-811
-1292
-1068
-400
-45
-479
-1177
-1385
-891
-397
-438
-829
-1078
-989
-672
-308
-389
-910
-1320
-981
-138
53
-578
-1213
-1043
-515
-193
-418
-871
-1313
-1198
-384
142
-481
-1397
-1291
-301
107
-428
-1151
-1260
-613
-23
-218
-887
-1194
-809
-365
-337
-469
-632
-1170
-1153
-303
237
-506
-1412
-1288
-304
157
-386
-1112
-1422
-953
-139
81
-720
-1381
-1046
-444
-205
-231
-701
-1297
-1112
-139
294
-335
-1165
-1137
-501
-197
-338
-654
-1200
-1241
-332
361
-480
-1344
-1175
-408
-1
-282
-848
-1176
-859
-135
231
-439
-1237
-1143
-297
70
-305
-719
-977
-998
-377
76
-303
-1083
-1092
-452
103
-15
-571
-1090
-1182
-540
254
31
-1094
-1528
-613
266
-23
-709
-1174
-959
-403
78
-91
-767
-1128
-623
97
-13
-785
-990
-654
-446
-254
-61
-589
-1436
-1038
-87
129
-608
-1235
-1091
-203
293
-63
-725
-1219
-1060
18
530
-419
-1386
-982
-127
143
-73
-728
-1244
-961
-178
190
-269
-977
-1135
-422
181
-238
-741
-872
-764
-350
108
-98
-1038
-1154
-394
235
-3
-620
-947
-781
-80
340
9
-837
-1374
-729
417
358
-722
-1378
-674
2
113
-220
-949
-1218
-573
326
265
-447
-1017
-813
7
238
-354
-804
-840
-545
-211
229
-145
-1185
-1109
-166
308
-232
-916
-1104
-619
165
288
-326
-1033
-1280
-510
562
310
-982
-1465
-413
258
33
-455
-862
-904
-472
313
189
-622
-1077
-723
201
327
-425
-940
-812
-411
-158
96
-367
-1134
-875
49
477
-248
-1036
-995
-231
426
200
-535
-1055
-921
42
520
-139
-1154
-963
86
335
-40
-704
-994
-822
-150
422
-26
-794
-914
-345
257
60
-480
-764
-550
-170
35
162
-618
-1202
-644
436
621
-389
-1131
-914
7
536
94
-605
-1052
-637
317
468
-405
-1363
-982
33
497
96
-715
-870
-518
273
508
-77
-859
-845
-122
171
-127
-541
-685
-535
-161
209
-54
-787
-971
-440
312
211
-492
-950
-595
210
519
5
-943
-1125
-224
626
232
-680
-1026
-548
303
592
-99
-908
-995
-400
453
570
-296
-1038
-630
161
419
-78
-806
-865
-268
271
156
-312
-822
-780
-15
634
261
-614
-922
-403
326
461
-189
-913
-802
-51
504
155
-735
-1046
-408
374
374
-322
-904
-864
-168
543
282
-663
-1070
-417
487
573
-270
-978
-731
102
516
70
-749
-1096
-564
393
555
-237
-1034
-928
-119
446
250
-430
-919
-634
262
627
-27
-910
-929
-38
657
240
-599
-1007
-594
263
599
-31
-810
-854
-204
460
278
-462
-932
-589
126
424
-16
-788
-949
-190
628
418
-467
-1017
-598
226
565
55
-757
-1002
-372
469
512
-314
-992
-748
174
618
137
-659
-966
-366
500
574
-270
-1019
-900
15
662
297
-574
-958
-367
448
488
-258
-1040
-872
96
687
201
-746
-991
-347
500
577
-192
-881
-856
-198
373
293
-536
-1079
-496
552
745
-64
-904
-902
-113
534
246
-505
-886
-560
333
674
-50
-966
-1030
-119
582
299
-546
-1083
-660
342
700
51
-745
-914
-210
579
368
-450
-924
-499
350
683
114
-811
-952
-172
615
459
-355
-936
-715
146
644
141
-686
-935
-230
634
558
-341
-991
-619
256
617
121
-708
-979
-342
597
603
-224
-889
-769
157
758
293
-635
-966
-445
356
505
-177
-950
-859
52
744
386
-587
-1106
-515
547
759
1
-842
-893
-86
723
533
-494
-1192
-700
411
782
-35
-1053
-1065
-10
913
581
-573
-1280
-744
484
872
-81
-1195
-1070
109
941
458
-619
-1103
-505
470
753
-10
-940
-1037
-84
827
389
-726
-1135
-475
450
651
-126
-946
-1009
-192
526
448
-253
-896
-699
257
798
191
-890
-1214
-210
931
696
-488
-1140
-641
319
658
142
-708
-924
-214
535
445
-353
-968
-646
180
551
80
-574
-769
-405
259
506
-17
-866
-945
-42
730
496
-462
-1023
-498
485
717
5
-801
-964
-256
567
458
-453
-1143
-811
301
910
227
-932
-1131
-130
781
602
-403
-1139
-667
548
927
40
-985
-1015
-45
761
435
-585
-1090
-568
371
734
94
-789
-954
-124
758
631
-328
-1039
-623
420
772
80
-786
-834
-134
630
583
-288
-920
-699
115
790
489
-605
-1214
-492
731
926
-114
-1186
-917
405
1077
323
-756
-1023
-333
635
745
-185
-981
-768
162
823
426
-547
-1010
-385
648
827
-100
-1032
-833
251
897
301
-777
-1018
-246
582
535
-133
-661
-653
-149
437
475
-246
-927
-607
472
976
192
-880
-1064
-185
741
572
-422
-1152
-673
493
901
119
-813
-913
-111
719
646
-366
-1251
-811
512
942
-46
-997
-784
160
811
536
-249
-842
-659
246
840
381
-753
-1206
-370
809
828
-320
-1132
-652
404
709
76
-642
-771
-251
526
760
16
-999
-929
313
1083
271
-991
-1018
26
752
485
-242
-769
-740
-33
816
741
-424
-1303
-655
714
889
-196
-1008
-662
268
702
310
-416
-887
-488
465
918
139
-961
-984
128
985
412
-733
-1033
-411
377
683
195
-667
-899
-164
768
734
-331
-1135
-670
578
844
-139
-879
-652
68
635
546
-103
-723
-574
334
919
257
-869
-1081
-145
730
596
-188
-849
-711
129
820
519
-436
-957
-340
624
680
-152
-836
-614
234
853
577
-386
-1029
-391
862
1056
1
-954
-783
183
891
519
-348
-894
-493
598
1091
102
-1062
-916
240
995
560
-405
-915
-523
486
954
329
-841
-1173
-51
1074
583
-579
-987
-337
631
909
251
-707
-994
-24
1091
886
-518
-1296
-493
799
946
100
-679
-738
-22
778
758
-185
-1091
-695
660
1126
81
-979
-810
102
755
624
-98
-784
-611
452
1086
313
-853
-960
121
917
508
-304
-664
-502
233
928
620
-434
-955
-130
1007
784
-337
-920
-444
349
725
440
-313
-917
-447
735
1023
59
-852
-675
304
824
408
-372
-746
-499
377
891
315
-799
-932
234
1143
665
-488
-945
-360
562
864
304
-627
-1094
-284
1036
1018
-282
-1103
-510
672
1018
181
-701
-790
-12
864
851
-140
-1115
-858
567
1211
327
-826
-881
123
1058
905
-36
-794
-595
396
1120
538
-790
-1162
-21
1041
783
-282
-855
-376
651
1141
546
-533
-933
-130
961
940
-311
-1212
-611
699
1062
296
-563
-661
-7
840
951
151
-822
-787
334
1213
470
-839
-958
78
920
764
37
-505
-453
382
1081
771
-431
-1079
-378
986
1122
-62
-955
-607
326
897
598
-198
-840
-396
677
1113
203
-923
-1007
220
1224
757
-356
-776
-268
694
1089
453
-600
-881
-24
979
915
-202
-1060
-605
691
1098
294
-546
-655
-16
834
902
124
-702
-506
441
1127
536
-633
-944
79
975
694
-167
-688
-513
322
930
643
-286
-764
-193
955
1102
0
-1006
-632
551
995
343
-480
-705
-137
690
974
276
-658
-706
388
1323
702
-574
-981
-59
828
760
35
-521
-624
67
975
959
-164
-933
-420
936
1231
105
-963
-655
374
824
423
-125
-712
-614
353
1179
663
-556
-994
55
1214
777
-559
-1034
-204
642
679
146
-366
-673
-187
728
970
14
-947
-693
692
1286
224
-1074
-914
234
870
483
-118
-607
-571
251
1065
793
-456
-1090
-201
1215
1101
-346
-1211
-471
734
950
221
-461
-752
-303
574
1067
340
-801
-849
351
1315
741
-628
-1080
-135
967
792
-180
-773
-611
196
868
712
-269
-901
-389
805
1182
207
-979
-919
355
1203
466
-608
-806
-178
560
745
305
-501
-830
-61
1101
1069
-257
-1297
-681
863
1284
81
-945
-750
215
906
643
-198
-839
-543
479
1147
493
-711
-1079
-26
1147
965
-425
-1136
-444
743
1112
309
-622
-830
-83
893
904
58
-938
-921
207
1232
773
-696
-1286
-225
1194
1109
-215
-1075
-589
568
1025
477
-425
-940
-527
666
1181
314
-998
-1142
263
1393
811
-638
-1122
-244
909
1004
53
-685
-755
7
863
794
-160
-1038
-701
650
1367
418
-926
-1064
246
1224
754
-434
-1012
-416
623
981
229
-711
-888
-151
867
866
-98
-964
-680
589
1184
374
-825
-966
77
1047
675
-402
-934
-528
430
799
313
-493
-872
-359
761
1089
120
-984
-864
457
1202
482
-817
-1152
-203
944
844
-177
-846
-608
337
1077
676
-516
-1113
-348
971
1134
-12
-1138
-868
430
1149
449
-687
-1050
-181
905
960
5
-876
-753
264
1109
736
-407
-1083
-479
758
1163
115
-1168
-1043
381
1354
615
-604
-1034
-362
631
885
177
-699
-866
-81
891
878
-132
-972
-577
729
1210
258
-929
-1028
-68
844
733
-252
-879
-627
321
895
470
-538
-1066
-312
999
1210
-46
-1200
-935
629
1509
471
-930
-1104
74
1035
739
-262
-905
-575
379
947
462
-476
-889
-316
858
1017
-59
-1034
-732
432
1104
475
-751
-1105
-227
955
969
-53
-859
-661
299
992
629
-390
-968
-446
758
1208
183
-1047
-1120
89
1111
716
-523
-1183
-461
869
1161
205
-791
-935
91
1028
875
-273
-1091
-657
551
1073
307
-814
-1163
-116
1116
1118
-330
-1252
-691
661
1190
234
-904
-985
-11
1036
827
-334
-1176
-751
521
1158
366
-802
-994
-74
1025
830
-299
-1114
-717
408
1057
475
-751
-1140
-61
1158
909
-273
-1024
-707
272
770
279
-627
-967
-256
886
1156
119
-1022
-981
401
1284
638
-613
-1150
-346
825
929
-140
-982
-907
199
1078
727
-485
-1160
-466
710
1064
148
-922
-943
226
1241
825
-425
-1172
-722
529
1021
235
-895
-957
121
1194
771
-478
-1070
-523
603
1025
301
-861
-1115
1
1077
872
-410
-1202
-639
686
1133
328
-773
-1005
-180
959
940
-181
-1163
-855
497
1263
487
-822
-1109
-156
1004
947
-171
-1070
-877
276
1159
651
-533
-1137
-347
899
1087
30
-1043
-781
376
1013
489
-480
-995
-288
825
1101
158
-954
-1071
199
1172
720
-728
-1308
-461
900
1001
65
-851
-808
262
1214
757
-521
-1214
-663
662
1203
284
-924
-1017
210
1127
857
-450
-1179
-629
678
1202
252
-1097
-1163
86
1141
715
-470
-1080
-486
626
1109
279
-828
-1019
-59
1120
942
-302
-1152
-665
675
1111
302
-766
-969
-113
909
1001
-65
-1174
-915
519
1340
511
-821
-1174
-82
1063
1010
-155
-1076
-926
217
1096
695
-587
-1226
-337
1118
1318
25
-1068
-844
387
1113
531
-511
-995
-352
800
1046
22
-1022
-1043
169
1159
786
-479
-1133
-509
735
1186
175
-966
-861
278
1346
892
-498
-1193
-494
795
1179
221
-955
-1070
-45
1004
792
-285
-1050
-601
715
1211
289
-914
-1026
118
1105
848
-240
-1011
-585
562
1257
440
-750
-1102
-95
1012
921
-235
-1125
-763
598
1293
504
-736
-1115
-60
1129
1063
-122
-1017
-626
558
1225
604
-600
-1045
-166
1003
1124
56
-996
-805
427
1203
634
-544
-1014
-281
1015
1284
167
-959
-894
397
1324
732
-554
-1073
-310
944
1215
212
-882
-860
312
1250
788
-496
-1096
-380
952
1279
175
-934
-797
337
1162
743
-370
-1070
-574
769
1368
469
-886
-1069
162
1347
1014
-295
-1077
-532
700
1201
409
-754
-1005
48
1179
1048
-159
-1109
-674
628
1314
521
-771
-1064
-13
1121
1096
-163
-1045
-714
589
1342
639
-671
-1066
-121
1185
1187
-161
-1216
-914
436
1337
750
-580
-1131
-267
951
1158
107
-1100
-946
429
1462
879
-540
-1187
-275
1038
1131
11
-1024
-810
426
1304
734
-542
-1157
-420
876
1151
122
-1042
-1026
264
1351
912
-511
-1229
-510
828
1236
329
-899
-1048
40
1226
1010
-265
-1117
-538
803
1232
236
-985
-1118
-42
1119
974
-229
-1080
-654
645
1262
476
-810
-1174
-85
1157
1111
-139
-1177
-747
677
1412
598
-741
-1203
-185
1184
1203
-66
-1106
-803
554
1325
593
-704
-1084
-142
1131
1159
-100
-1120
-801
463
1321
694
-556
-1096
-327
1060
1346
178
-990
-957
299
1255
755
-561
-1207
-415
953
1206
83
-1010
-959
285
1254
815
-432
-1063
-419
854
1260
277
-941
-1086
108
1223
943
-361
-1224
-571
836
1297
367
-948
-1122
39
1224
959
-399
-1336
-829
653
1313
446
-874
-1099
-17
1161
1052
-219
-1102
-689
629
1361
586
-746
-1238
-220
1156
1174
-193
-1315
-883
659
1438
584
-820
-1255
-228
1120
1157
-125
-1160
-842
529
1322
584
-766
-1246
-258
1123
1190
-66
-1110
-880
415
1272
676
-659
-1203
-327
948
1058
-48
-1147
-988
370
1401
809
-627
-1291
-459
1001
1266
127
-1067
-972
312
1325
836
-491
-1211
-590
680
1071
195
-965
-1053
73
1152
780
-536
-1246
-613
700
1134
273
-871
-980
96
1196
976
-294
-1185
-657
677
1240
354
-821
-1027
20
1123
892
-347
-1139
-658
635
1264
426
-816
-1125
-191
1017
1019
-189
-1185
-916
469
1352
686
-650
-1127
-201
1060
1134
-1
-1059
-923
353
1301
839
-482
-1209
-466
897
1138
-14
-1161
-1026
298
1308
816
-523
-1155
-344
980
1225
107
-1122
-1056
249
1283
869
-441
-1223
-604
783
1212
174
-1102
-1108
195
1280
878
-432
-1218
-554
837
1339
379
-987
-1218
-49
1204
1066
-326
-1281
-699
799
1386
435
-938
-1208
-31
1227
1042
-238
-1146
-760
523
1213
407
-910
-1215
-109
1140
1054
-214
-1162
-757
603
1343
555
-809
-1203
-132
1176
1168
-111
-1166
-883
500
1373
684
-786
-1396
-392
1070
1209
-38
-1123
-890
443
1358
748
-688
-1299
-547
851
1246
122
-1154
-1092
252
1343
861
-578
-1345
-615
843
1310
283
-960
-1057
25
1106
777
-536
-1310
-644
748
1185
196
-1001
-1099
48
1146
919
-298
-1092
-565
784
1356
350
-1045
-1331
-132
1207
974
-410
-1284
-695
706
1245
296
-944
-1118
1
1230
1123
-96
-1012
-675
471
1162
521
-720
-1155
-233
996
1068
-106
-1139
-888
454
1246
524
-669
-1055
-177
1139
1190
-99
-1267
-1074
313
1323
786
-645
-1292
-383
1034
1196
4
-1103
-931
385
1343
849
-446
-1100
-463
806
1176
132
-1046
-1073
141
1225
761
-596
-1335
-523
980
1358
179
-1062
-1058
234
1360
922
-504
-1205
-501
855
1277
195
-1046
-1086
59
1107
879
-286
-1146
-724
626
1299
458
-857
-1155
-20
1215
1012
-279
-1231
-774
616
1298
415
-932
-1105
20
1163
975
-265
-1137
-736
583
1264
440
-873
-1203
-204
1074
1111
-104
-1120
-916
422
1285
665
-678
-1268
-359
1052
1247
65
-1145
-1023
336
1343
784
-683
-1302
-376
1086
1242
-39
-1195
-1033
324
1368
792
-637
-1317
-475
1057
1402
210
-1112
-1160
159
1292
920
-500
-1391
-606
990
1445
271
-1094
-1120
165
1301
850
-521
-1298
-657
786
1290
328
-989
-1211
5
1277
1126
-246
-1247
-728
769
1444
466
-989
-1310
-61
1288
1193
-234
-1375
-937
580
1378
541
-881
-1262
-190
1215
1195
-192
-1288
-894
605
1432
642
-744
-1260
-334
1054
1220
-42
-1292
-1108
447
1549
847
-682
-1296
-342
1070
1275
52
-1155
-1080
247
1325
872
-529
-1293
-507
925
1242
112
-1107
-1015
344
1358
886
-428
-1147
-458
909
1344
287
-1024
-1146
129
1344
994
-432
-1315
-648
834
1383
336
-1002
-1129
125
1320
1022
-307
-1169
-646
693
1264
362
-889
-1174
-133
1156
1175
-116
-1178
-860
600
1489
604
-913
-1316
-126
1310
1209
-197
-1254
-834
592
1305
495
-797
-1164
-231
1057
1177
20
-1075
-887
439
1383
740
-709
-1315
-349
1143
1298
-8
-1199
-974
412
1367
704
-718
-1249
-341
1084
1318
167
-1073
-1067
200
1265
839
-525
-1246
-515
922
1319
271
-954
-1090
113
1318
979
-485
-1402
-737
841
1447
340
-1078
-1183
153
1346
1002
-392
-1288
-731
752
1426
466
-903
-1146
-1
1194
942
-335
-1159
-648
688
1241
309
-941
-1116
23
1157
954
-308
-1104
-570
805
1398
510
-891
-1266
-233
1193
1226
-154
-1367
-1088
464
1496
748
-813
-1445
-424
1184
1401
87
-1144
-971
445
1381
680
-723
-1198
-199
1059
1110
-51
-1071
-853
415
1291
659
-619
-1129
-240
1070
1248
73
-1060
-915
326
1216
650
-594
-1147
-402
912
1272
267
-912
-1077
85
1197
971
-290
-1180
-649
756
1360
498
-817
-1148
-139
1072
1079
-102
-1190
-834
729
1541
551
-1098
-1485
-150
1395
1184
-337
-1366
-781
918
1752
774
-916
-1578
-365
1428
1567
-96
-1492
-962
886
1725
489
-1194
-1465
-110
1326
1186
-197
-1185
-695
821
1626
725
-884
-1493
-312
1424
1495
-196
-1423
-885
697
1392
360
-871
-1079
-68
1087
1054
22
-897
-706
468
1356
814
-594
-1294
-437
1087
1305
-115
-1279
-823
669
1454
569
-652
-1037
-202
842
971
142
-824
-774
305
1308
876
-544
-1392
-688
982
1550
240
-1258
-1153
384
1514
836
-681
-1223
-428
834
1061
238
-781
-937
50
1205
1170
-75
-1122
-939
551
1551
785
-912
-1553
-285
1381
1330
-273
-1440
-828
668
1317
536
-644
-1068
-234
1127
1424
324
-1001
-1055
197
1361
1003
-498
-1440
-699
1059
1576
260
-1230
-1234
291
1364
843
-496
-1108
-391
943
1377
435
-863
-1093
126
1334
900
-541
-1289
-517
910
1273
275
-935
-1041
87
1191
808
-330
-977
-497
698
1149
363
-703
-1065
-80
1158
959
-442
-1303
-564
932
1459
439
-922
-1126
27
1197
953
-369
-1192
-696
637
1292
577
-636
-968
-176
962
1129
-29
-1243
-992
457
1400
728
-780
-1305
-281
1083
1075
-97
-1017
-733
549
1284
659
-581
-1015
-100
1161
1266
59
-1155
-1067
378
1416
667
-780
-1332
-383
1018
1257
38
-1090
-879
428
1395
827
-457
-1022
-281
1072
1403
226
-1170
-1277
184
1496
1021
-547
-1448
-679
924
1336
202
-1065
-1039
259
1412
1053
-344
-1197
-612
817
1299
301
-1053
-1195
83
1339
1097
-384
-1389
-845
626
1312
437
-924
-1185
2
1231
1044
-186
-1117
-743
632
1345
529
-785
-1237
-319
934
1028
-126
-1161
-890
460
1311
566
-806
-1212
-118
1281
1278
-48
-1180
-832
616
1423
618
-861
-1397
-368
1077
1221
-41
-1208
-1009
418
1435
861
-542
-1213
-415
967
1272
273
-944
-1057
195
1318
923
-459
-1290
-618
872
1305
190
-1053
-977
365
1295
772
-513
-1095
-336
895
1182
181
-965
-1044
128
1340
1015
-413
-1194
-514
952
1464
341
-1162
-1279
165
1541
1133
-403
-1375
-710
802
1391
460
-791
-1017
34
1286
1193
-181
-1280
-820
745
1533
600
-916
-1295
-70
1382
1243
-334
-1489
-911
856
1711
634
-945
-1277
-104
1229
1212
-130
-1296
-991
518
1604
950
-660
-1430
-494
1122
1442
98
-1359
-1300
401
1749
998
-768
-1450
-353
1272
1416
97
-1117
-1040
348
1442
978
-529
-1455
-692
976
1398
251
-1078
-1128
182
1458
1141
-434
-1376
-587
976
1517
343
-1149
-1219
132
1379
1045
-385
-1301
-670
780
1432
409
-994
-1148
52
1210
1121
-280
-1340
-868
698
1425
453
-929
-1239
-50
1276
1214
-81
-1171
-885
500
1353
584
-995
-1356
-128
1227
1125
-148
-1119
-820
407
1237
733
-557
-1257
-410
1116
1353
31
-1212
-1026
321
1390
837
-673
-1346
-397
1153
1333
88
-1154
-1007
417
1312
689
-602
-1171
-496
783
1214
253
-944
-1041
35
1152
1069
-197
-1329
-877
780
1592
417
-1167
-1411
27
1509
1204
-360
-1379
-791
920
1689
601
-1049
-1401
-27
1431
1124
-437
-1371
-743
764
1371
510
-874
-1349
-150
1325
1285
-181
-1336
-874
668
1480
682
-739
-1257
-313
1113
1312
-35
-1295
-1074
389
1488
853
-743
-1451
-443
1164
1307
-58
-1270
-979
492
1438
735
-775
-1247
-191
1132
1155
-31
-1096
-975
279
1195
673
-493
-1128
-462
830
1286
349
-873
-1084
29
1270
996
-453
-1402
-659
969
1563
420
-1061
-1188
212
1408
935
-607
-1372
-514
1067
1311
143
-1083
-1046
248
1334
888
-459
-1284
-659
740
1300
370
-933
-1146
56
1341
1126
-362
-1453
-910
722
1480
489
-1024
-1366
-54
1451
1233
-252
-1240
-779
559
1165
452
-797
-1273
-434
1119
1431
43
-1253
-1173
385
1469
831
-596
-1491
-725
926
1552
185
-1481
-1344
441
1580
844
-790
-1404
-360
1144
1371
35
-1448
-1273
372
1429
621
-759
-1233
-436
996
1297
239
-1011
-1099
166
1385
886
-659
-1250
-469
724
1029
225
-973
-1295
-47
1303
1226
-195
-1244
-711
758
1142
355
-700
-1217
-546
1008
1394
-30
-1311
-984
688
1574
600
-1041
-1373
-332
1136
1334
51
-1607
-1368
694
1809
504
-1148
-1369
-88
1203
1204
-129
-1136
-984
444
1654
1010
-1068
-1769
-274
1293
1065
-259
-1263
-986
448
1527
865
-517
-1420
-771
885
1558
91
-1441
-1122
516
1380
800
-599
-1380
-594
1030
1455
320
-1095
-1431
34
1665
1172
-881
-1764
-525
1099
1330
62
-1026
-981
229
1279
946
-275
-1264
-960
685
1606
299
-1449
-1370
402
1420
762
-593
-1170
-679
689
1408
840
-595
-1487
-585
1233
1329
-435
-1693
-828
905
1289
247
-823
-903
26
1086
1092
-100
-1271
-1254
257
1589
996
-921
-1858
-468
1498
1470
-198
-1273
-882
342
1073
643
-440
-1006
-394
809
1120
-18
-1323
-1210
488
1665
800
-933
-1586
-386
1214
1365
189
-987
-1157
21
1224
786
-563
-1196
-496
694
1046
253
-841
-992
133
1384
910
-690
-1490
-572
975
1413
258
-1150
-1240
151
1359
899
-509
-1209
-749
540
1279
567
-900
-1294
-66
1235
1010
-279
-1222
-904
533
1280
394
-1063
-1271
62
1319
1038
-404
-1295
-773
644
1370
594
-809
-1438
-351
1230
1243
-233
-1345
-1031
455
1359
615
-858
-1301
-322
1071
1156
-142
-1295
-921
650
1596
805
-865
-1523
-434
1200
1445
154
-1249
-1276
205
1436
924
-548
-1326
-588
818
1265
269
-984
-1127
172
1322
952
-493
-1427
-658
1063
1509
223
-1269
-1354
161
1549
1134
-455
-1297
-591
906
1374
251
-1130
-1197
153
1444
1013
-488
-1431
-732
866
1408
232
-1151
-1275
63
1466
1315
-96
-1249
-1037
474
1501
768
-905
-1425
-78
1350
1166
-282
-1305
-999
377
1283
647
-802
-1325
-220
1365
1263
-272
-1397
-918
463
1263
783
-538
-1332
-536
1057
1402
-17
-1369
-1102
543
1494
685
-765
-1433
-628
962
1555
266
-1400
-1376
335
1571
867
-663
-1264
-508
855
1293
303
-976
-1089
230
1355
729
-698
-1240
-380
833
1108
280
-938
-1234
-103
1294
1069
-400
-1332
-679
938
1508
428
-950
-1305
-239
1161
1273
-159
-1480
-963
849
1547
426
-1021
-1312
-256
1100
1152
-113
-1210
-856
648
1466
503
-1084
-1358
-66
1195
949
-246
-1153
-856
468
1400
780
-701
-1348
-365
1235
1405
44
-1150
-984
398
1401
863
-622
-1514
-669
1042
1513
216
-1342
-1360
304
1653
1001
-652
-1344
-345
1219
1476
145
-1185
-1066
321
1294
736
-585
-1244
-535
876
1329
240
-1093
-1226
101
1432
1117
-433
-1285
-589
837
1328
352
-1012
-1286
-57
1276
1138
-249
-1341
-866
760
1608
675
-917
-1349
-95
1381
1285
-177
-1319
-897
626
1310
411
-834
-1123
-121
1168
1164
-202
-1312
-794
808
1546
577
-864
-1252
-121
1286
1287
-90
-1287
-1008
431
1349
698
-716
-1300
-407
977
1267
182
-1056
-1082
266
1417
944
-610
-1424
-584
991
1371
204
-1059
-1043
250
1408
1017
-495
-1430
-657
984
1478
298
-1049
-1110
161
1317
994
-453
-1459
-824
869
1491
430
-993
-1169
45
1365
1135
-311
-1311
-723
911
1546
429
-1076
-1368
-35
1373
1171
-310
-1407
-921
689
1525
664
-897
-1449
-261
1340
1316
-164
-1280
-834
689
1444
554
-918
-1364
-249
1229
1282
-85
-1291
-926
600
1463
672
-827
-1393
-330
1282
1410
-25
-1343
-1125
510
1631
837
-746
-1357
-404
1078
1348
89
-1176
-1060
406
1463
879
-538
-1192
-374
1040
1317
115
-1240
-1265
150
1370
889
-628
-1357
-521
1084
1505
299
-1098
-1127
271
1522
1020
-575
-1502
-788
904
1534
426
-990
-1176
9
1199
983
-398
-1331
-717
897
1523
439
-888
-1120
8
1169
1009
-264
-1237
-795
775
1654
691
-942
-1455
-246
1280
1299
-75
-1207
-842
679
1507
619
-939
-1470
-311
1279
1365
-41
-1223
-961
493
1478
780
-709
-1324
-289
1334
1533
136
-1233
-1207
181
1333
898
-533
-1324
-557
1015
1419
141
-1241
-1176
333
1465
876
-533
-1251
-466
965
1276
99
-1215
-1205
283
1492
921
-587
-1448
-783
815
1465
436
-1001
-1267
103
1551
1222
-488
-1629
-989
721
1538
569
-954
-1342
-142
1251
1046
-418
-1439
-801
915
1635
604
-939
-1318
-179
1206
1097
-279
-1315
-823
726
1516
545
-1012
-1484
-320
1173
1272
7
-1144
-849
628
1461
546
-1015
-1444
-285
1279
1374
-45
-1337
-1156
367
1418
800
-712
-1316
-317
1245
1410
6
-1369
-1295
197
1357
849
-608
-1377
-550
963
1255
16
-1273
-1180
269
1519
1040
-460
-1309
-649
804
1233
89
-1233
-1252
159
1358
907
-574
-1472
-819
747
1381
413
-1044
-1284
125
1562
1209
-484
-1599
-975
718
1506
541
-966
-1364
-186
1221
1086
-426
-1472
-834
876
1652
606
-941
-1388
-311
1081
1131
-175
-1313
-949
630
1535
668
-860
-1381
-279
1259
1377
50
-1158
-981
469
1436
684
-862
-1428
-278
1313
1447
-6
-1346
-1165
317
1384
772
-694
-1406
-466
1203
1601
334
-1106
-1193
224
1414
836
-638
-1401
-593
930
1310
136
-1183
-1200
179
1428
1046
-507
-1457
-729
922
1450
255
-1254
-1403
108
1528
1152
-486
-1490
-789
819
1435
365
-1066
-1281
8
1371
1188
-230
-1261
-768
723
1382
435
-1045
-1437
-219
1209
1156
-229
-1320
-889
707
1524
565
-991
-1329
-70
1382
1302
-78
-1197
-926
420
1282
544
-875
-1397
-329
1207
1327
-50
-1314
-1112
348
1397
755
-726
-1371
-368
1171
1319
-37
-1324
-1193
346
1497
911
-620
-1393
-564
995
1311
76
-1242
-1213
189
1408
975
-501
-1392
-717
817
1325
256
-1151
-1319
38
1403
1070
-429
-1447
-817
784
1402
296
-1106
-1221
57
1345
1086
-478
-1505
-869
785
1533
494
-1083
-1477
-197
1274
1138
-297
-1374
-810
801
1543
577
-964
-1484
-366
1196
1251
-156
-1322
-924
673
1581
664
-941
-1433
-297
1220
1263
-118
-1310
-990
557
1482
733
-780
-1393
-350
1230
1387
-2
-1264
-1092
418
1497
881
-639
-1381
-460
1125
1411
47
-1304
-1216
294
1488
931
-616
-1418
-558
1056
1472
254
-1174
-1265
154
1419
994
-567
-1443
-664
908
1418
302
-1106
-1295
41
1350
1022
-469
-1407
-743
794
1413
409
-978
-1237
2
1351
1153
-338
-1482
-962
749
1578
572
-999
-1371
-102
1349
1246
-186
-1308
-935
595
1486
627
-873
-1335
-202
1258
1244
-157
-1359
-1064
504
1461
662
-848
-1339
-220
1293
1331
-83
-1307
-1087
465
1543
851
-741
-1451
-489
1123
1385
74
-1244
-1129
301
1410
856
-643
-1456
-604
988
1390
214
-1150
-1229
160
1442
1003
-529
-1418
-702
866
1428
314
-1119
-1295
115
1447
1026
-486
-1374
-722
859
1473
391
-1076
-1314
55
1409
1070
-476
-1485
-839
847
1522
463
-1025
-1332
-76
1316
1155
-265
-1347
-891
701
1514
587
-948
-1459
-355
1192
1253
-133
-1315
-944
645
1492
618
-934
-1437
-292
1226
1256
-120
-1277
-1004
519
1478
691
-842
-1370
-327
1195
1359
-40
-1345
-1135
403
1498
844
-657
-1420
-557
1032
1402
145
-1280
-1303
180
1424
899
-614
-1412
-575
989
1354
131
-1221
-1268
104
1324
920
-538
-1384
-737
793
1335
219
-1199
-1341
49
1405
1033
-536
-1540
-822
861
1516
390
-1166
-1358
-36
1275
961
-480
-1435
-868
726
1474
489
-982
-1388
-227
1220
1184
-242
-1415
-997
574
1477
631
-867
-1319
-223
1193
1215
-144
-1358
-1096
460
1486
708
-845
-1433
-382
1166
1271
-151
-1371
-1078
431
1377
657
-857
-1493
-469
1143
1396
49
-1313
-1179
390
1490
777
-738
-1399
-475
1047
1323
73
-1266
-1238
215
1415
871
-716
-1524
-664
917
1378
211
-1181
-1319
58
1409
1025
-556
-1536
-755
953
1500
278
-1230
-1422
-19
1394
1160
-360
-1474
-919
719
1454
362
-1122
-1420
-137
1255
1049
-405
-1413
-905
653
1407
496
-1000
-1397
-221
1263
1255
-169
-1344
-965
580
1420
558
-932
-1443
-298
1225
1239
-188
-1412
-1087
471
1453
698
-828
-1438
-449
1101
1361
33
-1348
-1199
401
1544
863
-718
-1450
-491
1074
1324
41
-1255
-1196
217
1358
829
-652
-1422
-609
933
1341
124
-1284
-1329
192
1493
1018
-584
-1508
-704
922
1428
314
-1112
-1292
72
1406
1033
-516
-1490
-800
844
1469
367
-1108
-1375
-54
1341
1111
-391
-1425
-845
745
1462
506
-974
-1316
-64
1359
1198
-278
-1425
-979
601
1421
532
-963
-1433
-273
1192
1196
-228
-1418
-1018
605
1523
654
-885
-1421
-330
1212
1344
-51
-1354
-1140
427
1475
757
-839
-1505
-462
1145
1366
59
-1292
-1178
342
1460
787
-766
-1508
-595
1009
1373
116
-1269
-1204
269
1430
882
-661
-1483
-649
947
1372
145
-1278
-1373
40
1385
1024
-518
-1508
-814
831
1382
243
-1199
-1397
-71
1308
1064
-450
-1446
-825
769
1426
340
-1155
-1412
-92
1294
1135
-274
-1376
-904
686
1479
499
-1000
-1401
-237
1215
1194
-244
-1417
-1006
571
1421
582
-908
-1406
-276
1243
1285
-183
-1424
-1102
485
1483
736
-792
-1423
-400
1132
1345
19
-1319
-1171
382
1436
702
-818
-1446
-514
1022
1275
55
-1243
-1213
184
1372
860
-625
-1378
-577
941
1348
178
-1211
-1303
129
1449
1005
-586
-1509
-717
918
1436
302
-1117
-1270
78
1344
954
-536
-1481
-826
834
1487
396
-1091
-1324
-15
1329
1097
-357
-1421
-921
684
1518
577
-975
-1401
-164
1339
1217
-237
-1402
-998
606
1474
540
-1031
-1477
-261
1272
1275
-212
-1375
-943
602
1439
603
-888
-1435
-359
1175
1291
-35
-1265
-1058
419
1477
842
-753
-1525
-516
1167
1399
-7
-1330
-1147
432
1498
805
-722
-1409
-489
1047
1381
130
-1234
-1208
271
1428
869
-623
-1393
-608
930
1345
176
-1191
-1294
47
1328
1033
-470
-1483
-832
816
1450
322
-1179
-1378
-4
1331
1039
-417
-1393
-793
761
1370
375
-1039
-1347
-122
1276
1114
-341
-1411
-911
710
1483
461
-1043
-1360
-158
1279
1203
-247
-1409
-1011
582
1488
616
-913
-1407
-284
1198
1270
-96
-1321
-1085
449
1472
721
-848
-1454
-412
1194
1373
-11
-1322
-1131
393
1436
744
-736
-1391
-459
1089
1322
28
-1224
-1106
285
1390
883
-610
-1428
-623
967
1433
236
-1187
-1249
227
1506
1012
-577
-1454
-613
1003
1444
244
-1117
-1208
169
1406
1013
-429
-1376
-760
795
1431
443
-999
-1316
-47
1352
1169
-307
-1413
-885
732
1505
516
-1010
-1419
-170
1347
1239
-262
-1427
-939
703
1481
546
-970
-1377
-217
1250
1262
-156
-1368
-1043
517
1462
672
-864
-1479
-395
1198
1377
-30
-1344
-1087
478
1520
735
-857
-1445
-404
1159
1372
7
-1270
-1129
404
1526
863
-722
-1487
-538
1078
1422
106
-1275
-1191
295
1486
954
-566
-1436
-693
941
1482
277
-1256
-1348
165
1497
1015
-568
-1443
-653
947
1420
271
-1126
-1245
65
1343
1051
-398
-1381
-837
749
1451
428
-1086
-1388
-74
1355
1149
-321
-1428
-921
752
1547
505
-1032
-1427
-195
1303
1255
-179
-1367
-1020
575
1532
703
-902
-1475
-343
1193
1225
-184
-1399
-1102
495
1456
648
-880
-1474
-414
1147
1295
-35
-1335
-1134
433
1520
806
-793
-1475
-467
1130
1367
53
-1289
-1188
275
1418
877
-621
-1430
-630
996
1447
191
-1215
-1248
169
1424
990
-584
-1440
-606
1013
1468
293
-1116
-1294
55
1399
1097
-431
-1404
-757
885
1544
412
-1121
-1353
36
1450
1141
-454
-1498
-849
810
1534
511
-981
-1318
-116
1300
1199
-264
-1368
-909
656
1469
550
-945
-1357
-212
1257
1275
-108
-1342
-1064
562
1548
681
-964
-1530
-341
1257
1315
-112
-1300
-1023
473
1479
758
-793
-1421
-423
1127
1322
-10
-1296
-1152
318
1434
873
-673
-1476
-622
995
1392
129
-1268
-1306
151
1446
979
-619
-1505
-672
995
1440
196
-1206
-1232
175
1408
1013
-516
-1451
-753
849
1469
323
-1174
-1320
68
1441
1093
-434
-1416
-825
794
1521
482
-1044
-1330
-25
1423
1224
-299
-1407
-857
766
1507
519
-964
-1351
-178
1276
1210
-235
-1382
-938
663
1472
587
-886
-1351
-250
1191
1230
-129
-1310
-1056
459
1498
788
-779
-1455
-465
1119
1310
-49
-1338
-1122
463
1530
819
-760
-1492
-527
1072
1359
57
-1298
-1214
253
1433
885
-667
-1451
-566
1035
1408
176
-1188
-1184
223
1411
928
-558
-1385
-621
937
1432
318
-1093
-1248
82
1377
1033
-460
-1430
-805
836
1514
419
-1106
-1337
24
1417
1140
-393
-1423
-804
833
1518
476
-1033
-1324
-53
1355
1200
-249
-1338
-893
652
1444
599
-855
-1361
-254
1301
1343
-146
-1386
-1025
632
1573
683
-879
-1367
-267
1200
1301
-60
-1306
-1072
484
1527
724
-846
-1477
-404
1144
1358
42
-1248
-1141
346
1427
800
-755
-1477
-540
1095
1423
99
-1282
-1195
291
1464
910
-614
-1427
-602
996
1413
187
-1199
-1224
170
1429
1038
-508
-1470
-806
821
1450
378
-1072
-1271
133
1481
1097
-429
-1393
-801
810
1534
519
-968
-1299
-30
1414
1199
-342
-1416
-867
748
1523
531
-987
-1345
-129
1330
1224
-249
-1348
-918
632
1512
671
-875
-1444
-348
1244
1334
-106
-1374
-1092
535
1509
692
-832
-1396
-364
1169
1324
-22
-1320
-1149
396
1519
795
-778
-1439
-421
1143
1384
53
-1291
-1164
279
1359
798
-694
-1492
-655
980
1451
198
-1264
-1345
91
1354
933
-572
-1401
-660
931
1466
311
-1141
-1336
40
1399
1052
-471
-1443
-785
844
1446
377
-1105
-1413
-100
1351
1115
-403
-1430
-874
763
1507
517
-1005
-1368
-110
1357
1216
-260
-1391
-921
749
1601
584
-999
-1378
-153
1294
1223
-221
-1380
-964
593
1467
633
-854
-1384
-300
1183
1240
-131
-1310
-1011
510
1467
714
-760
-1343
-424
1100
1285
-24
-1294
-1161
315
1462
835
-746
-1542
-635
976
1348
103
-1269
-1232
247
1460
940
-642
-1500
-640
1008
1469
239
-1154
-1193
174
1423
1009
-534
-1442
-714
901
1446
289
-1141
-1272
80
1381
1013
-498
-1497
-853
791
1472
434
-1029
-1314
-21
1398
1191
-326
-1418
-899
728
1539
587
-954
-1414
-204
1259
1149
-285
-1436
-1021
639
1511
557
-996
-1434
-260
1220
1206
-185
-1367
-1049
522
1527
757
-818
-1401
-368
1130
1242
-107
-1336
-1133
352
1424
821
-727
-1493
-571
1040
1316
-35
-1374
-1233
291
1440
829
-711
-1459
-565
1021
1437
211
-1230
-1323
158
1461
971
-609
-1513
-710
933
1384
152
-1257
-1376
33
1411
1029
-527
-1473
-782
824
1416
312
-1110
-1299
-9
1375
1133
-369
-1410
-837
823
1536
488
-1062
-1404
-96
1343
1143
-340
-1432
-961
621
1435
547
-979
-1455
-258
1300
1333
-169
-1456
-1096
577
1518
593
-933
-1391
-238
1237
1277
-109
-1313
-1103
413
1424
693
-831
-1447
-478
1031
1243
-55
-1319
-1159
301
1379
784
-739
-1496
-600
1020
1397
87
-1283
-1186
285
1405
864
-673
-1492
-635
979
1420
212
-1226
-1283
143
1382
902
-623
-1481
-693
886
1427
347
-1078
-1261
52
1377
1057
-449
-1439
-795
861
1544
479
-1019
-1314
-78
1286
1132
-392
-1495
-923
759
1517
516
-1030
-1434
-210
1278
1223
-239
-1399
-971
653
1550
653
-932
-1476
-297
1203
1198
-185
-1382
-1082
502
1472
680
-850
-1453
-430
1084
1226
-125
-1393
-1164
397
1455
764
-792
-1465
-476
1079
1282
-49
-1345
-1215
258
1404
870
-668
-1482
-607
1009
1345
17
-1381
-1309
194
1408
922
-608
-1479
-708
909
1401
231
-1228
-1371
40
1391
1076
-432
-1393
-755
836
1444
356
-1126
-1350
40
1371
1110
-376
-1374
-803
746
1392
408
-1071
-1378
-88
1353
1195
-278
-1390
-902
758
1538
563
-969
-1380
-186
1274
1234
-165
-1345
-982
584
1494
649
-888
-1453
-349
1181
1235
-150
-1331
-1054
468
1458
730
-794
-1429
-457
1103
1372
22
-1315
-1144
397
1482
839
-729
-1443
-528
1040
1339
112
-1283
-1281
237
1454
878
-709
-1480
-631
976
1414
234
-1152
-1206
176
1398
989
-488
-1411
-693
904
1459
363
-1111
-1273
99
1393
1054
-452
-1440
-820
810
1499
454
-1080
-1361
-12
1420
1172
-346
-1386
-798
817
1499
498
-975
-1321
-95
1366
1258
-242
-1414
-932
699
1453
500
-974
-1353
-202
1232
1210
-149
-1307
-1004
539
1519
763
-850
-1466
-312
1277
1330
-103
-1305
-1011
453
1428
765
-727
-1427
-505
1088
1381
53
-1333
-1190
357
1442
788
-727
-1438
-573
978
1329
166
-1172
-1237
241
1535
1043
-608
-1534
-718
961
1463
233
-1186
-1282
142
1417
1000
-516
-1462
-780
848
1484
406
-1061
-1330
-19
1415
1167
-382
-1417
-812
849
1549
514
-1003
-1316
-68
1365
1223
-277
-1398
-896
736
1565
600
-947
-1402
-270
1183
1220
-120
-1355
-1084
607
1733
873
-836
-1422
-242
1330
1404
-84
-1532
-1216
679
1858
659
-1174
-1371
-94
1160
1079
-93
-1111
-1040
355
1503
997
-621
-1597
-788
1202
1858
202
-1793
-1455
787
1936
731
-1011
-1260
-251
1004
1369
396
-940
-1303
-198
1249
1399
-183
-1846
-1270
1231
2176
311
-1716
-1470
530
1606
856
-513
-1094
-528
678
1142
513
-587
-1224
-604
952
1653
176
-1622
-1366
885
1981
485
-1253
-1301
205
1372
767
-593
-1129
-470
540
856
523
-229
-1055
-681
865
1544
170
-1411
-1222
693
1842
604
-1279
-1590
-38
1435
927
-608
-1138
-566
417
973
601
-526
-1310
-622
976
1616
228
-1518
-1396
492
1869
894
-1106
-1631
-208
1291
1128
-236
-1269
-1059
287
1299
919
-406
-1401
-866
687
1349
352
-1110
-1504
76
1666
1111
-608
-1531
-807
879
1436
252
-1027
-1198
66
1408
1093
-543
-1493
-835
691
1483
438
-1144
-1441
-128
1310
1139
-489
-1611
-915
745
1452
487
-1004
-1324
-88
1202
1132
-167
-1332
-1058
456
1360
595
-925
-1622
-511
1128
1252
-140
-1385
-1131
478
1441
613
-817
-1323
-310
1136
1250
-89
-1339
-1203
307
1452
753
-825
-1528
-485
1119
1342
5
-1302
-1235
232
1401
807
-736
-1525
-677
951
1436
154
-1260
-1259
183
1414
977
-528
-1451
-718
894
1464
275
-1213
-1326
73
1324
978
-491
-1497
-831
847
1451
359
-1068
-1366
-46
1314
1070
-422
-1433
-846
757
1452
479
-910
-1328
-160
1346
1269
-212
-1365
-939
629
1551
650
-979
-1511
-303
1255
1221
-247
-1445
-1069
540
1527
684
-890
-1393
-332
1137
1275
-10
-1230
-1034
463
1479
743
-795
-1454
-474
1081
1329
15
-1311
-1163
370
1474
828
-719
-1522
-639
1019
1411
180
-1165
-1183
265
1544
1055
-550
-1456
-634
1055
1505
239
-1150
-1178
226
1470
1002
-577
-1479
-721
926
1473
346
-1065
-1215
116
1416
1089
-399
-1354
-726
877
1568
537
-964
-1376
-76
1414
1246
-272
-1423
-845
822
1616
637
-958
-1457
-251
1236
1254
-173
-1361
-986
627
1522
674
-823
-1392
-363
1270
1400
-13
-1268
-1042
501
1522
779
-789
-1400
-323
1185
1363
63
-1251
-1126
372
1548
904
-710
-1460
-418
1231
1471
94
-1293
-1173
392
1538
900
-653
-1445
-600
1045
1484
188
-1269
-1202
287
1518
999
-502
-1375
-609
1035
1533
176
-1457
-1357
387
1547
742
-626
-1207
-607
783
1330
447
-901
-1193
12
1399
1315
-353
-1686
-926
1133
1608
13
-1241
-973
193
1107
915
-47
-1127
-985
498
1583
852
-801
-1679
-517
1489
1703
-290
-1794
-839
1148
1535
240
-888
-973
-288
918
1293
332
-1094
-1181
123
1404
1077
-556
-1750
-762
1430
1734
-239
-1564
-960
662
1342
698
-555
-1173
-574
988
1345
129
-1134
-995
158
1227
1134
-302
-1663
-805
1066
1551
129
-1235
-1253
274
1511
1086
-568
-1599
-715
1191
1509
15
-1011
-978
-50
1196
1217
-283
-1486
-924
868
1646
552
-1111
-1233
-81
1158
1221
-59
-1575
-1052
915
1572
233
-969
-1385
-252
1154
1322
-158
-1260
-977
762
1657
425
-1106
-1122
-70
1087
1172
44
-1365
-1170
522
1382
657
-836
-1328
-359
1277
1392
168
-1420
-1403
302
1796
833
-960
-1406
-246
986
1304
57
-1270
-1292
233
1376
960
-582
-1295
-580
745
1212
352
-1104
-1485
105
1622
928
-741
-1458
-775
807
1290
231
-1093
-1135
139
1519
924
-691
-1468
-631
718
1317
395
-1090
-1514
-3
1356
1085
-456
-1503
-898
790
1590
601
-1118
-1534
-24
1516
954
-461
-1237
-848
523
1467
620
-966
-1439
-297
1242
1352
-40
-1297
-1167
398
1641
859
-1120
-1565
-102
1251
1101
-72
-1202
-1057
469
1496
847
-702
-1409
-503
997
1375
247
-1219
-1397
389
1746
782
-892
-1475
-469
988
1334
91
-1080
-1066
96
1142
1029
-390
-1498
-875
881
1541
340
-1301
-1447
233
1575
925
-622
-1380
-547
693
1026
317
-809
-1476
-350
1333
1147
-545
-1443
-941
839
1659
376
-1235
-1291
18
1051
928
-118
-1231
-1029
497
1593
607
-1142
-1468
-195
1389
1275
-280
-1349
-682
456
1089
703
-659
-1644
-537
1257
1416
-234
-1359
-1027
584
1550
831
-789
-1327
-492
914
1346
257
-1470
-1498
383
1623
768
-752
-1481
-467
1280
1542
68
-1249
-1312
80
1542
1006
-773
-1705
-590
987
1379
186
-1185
-1236
283
1569
1053
-740
-1781
-722
1160
1325
-58
-1205
-1179
-52
1336
1095
-504
-1504
-733
1007
1467
73
-1253
-1138
43
972
905
-388
-1553
-959
793
1612
532
-943
-1259
-175
974
1049
5
-1366
-1390
436
1598
485
-1096
-1429
-143
1473
1431
-175
-1507
-1189
594
1690
660
-1163
-1532
-290
1202
1251
-38
-1211
-929
681
1558
603
-966
-1374
-234
1065
1117
83
-1164
-1187
231
1503
967
-558
-1319
-620
899
1348
250
-1100
-1308
57
1439
1061
-516
-1497
-687
999
1556
242
-1333
-1457
-23
1449
1083
-641
-1632
-755
989
1540
305
-1212
-1321
78
1336
963
-538
-1447
-777
803
1387
338
-1119
-1406
-113
1438
1198
-374
-1481
-872
683
1342
374
-968
-1377
-246
1201
1194
-203
-1397
-985
597
1498
622
-918
-1380
-257
1151
1198
-60
-1360
-1164
509
1539
718
-920
-1480
-398
1172
1272
-147
-1349
-1142
392
1512
862
-753
-1501
-474
1121
1360
-29
-1347
-1193
317
1411
874
-583
-1486
-648
1047
1439
84
-1334
-1345
64
1334
872
-738
-1577
-740
936
1452
328
-1107
-1321
34
1370
1051
-581
-1613
-954
739
1441
387
-1093
-1335
-51
1348
1113
-428
-1563
-930
731
1456
331
-1265
-1548
-147
1362
1184
-298
-1409
-899
724
1495
485
-1012
-1396
-246
1193
1185
-284
-1452
-963
660
1515
657
-852
-1442
-333
1222
1302
-87
-1428
-1193
460
1575
770
-794
-1400
-366
1125
1333
30
-1250
-1159
311
1408
842
-773
-1491
-506
1155
1431
63
-1370
-1286
232
1430
955
-653
-1586
-709
1051
1469
189
-1331
-1412
32
1388
987
-570
-1519
-732
920
1435
288
-1164
-1384
-12
1280
946
-603
-1603
-918
782
1458
323
-1165
-1353
-30
1434
1144
-510
-1616
-1066
658
1542
540
-1135
-1557
-173
1338
1292
-214
-1458
-1058
551
1404
514
-1023
-1476
-357
1183
1229
-221
-1413
-1030
652
1610
714
-961
-1603
-479
1176
1301
-165
-1426
-1177
398
1517
740
-820
-1391
-274
1259
1303
-166
-1509
-1299
311
1520
860
-815
-1681
-710
1038
1574
358
-1128
-1314
-19
1210
826
-662
-1485
-637
999
1394
108
-1302
-1296
228
1586
1083
-698
-1782
-1010
798
1543
389
-1192
-1436
-130
1216
985
-500
-1477
-820
776
1410
310
-1243
-1582
-202
1386
1276
-285
-1508
-1080
660
1570
567
-997
-1412
-278
1113
1075
-338
-1446
-1014
637
1519
583
-1003
-1543
-337
1363
1472
-38
-1489
-1300
327
1472
813
-754
-1448
-368
1217
1365
-10
-1245
-1065
504
1515
678
-983
-1694
-612
1206
1554
104
-1379
-1301
277
1561
1066
-560
-1480
-770
782
1302
168
-1246
-1219
255
1495
995
-603
-1487
-651
1056
1497
132
-1390
-1561
-109
1414
1161
-414
-1479
-904
742
1486
445
-1034
-1294
-35
1250
952
-519
-1468
-830
819
1534
486
-1059
-1463
-214
1419
1421
-143
-1540
-1247
423
1461
620
-965
-1434
-243
1308
1284
-227
-1446
-1002
682
1592
672
-1030
-1652
-455
1265
1420
-16
-1385
-1169
448
1590
873
-739
-1391
-467
1022
1191
-229
-1495
-1237
423
1576
912
-675
-1502
-628
1026
1465
229
-1240
-1343
49
1270
819
-646
-1474
-713
980
1524
304
-1213
-1404
87
1522
1159
-520
-1664
-992
797
1512
371
-1208
-1430
-6
1433
1140
-449
-1494
-841
881
1540
407
-1229
-1575
-177
1348
1196
-355
-1501
-997
678
1535
544
-1044
-1428
-113
1484
1347
-272
-1533
-1144
543
1533
679
-930
-1507
-338
1297
1386
-55
-1306
-993
661
1603
649
-972
-1579
-486
1199
1410
-25
-1431
-1256
416
1638
991
-615
-1368
-408
1242
1481
53
-1398
-1323
242
1453
794
-797
-1508
-563
1155
1574
292
-1126
-1164
293
1559
1004
-657
-1630
-896
756
1320
152
-1221
-1179
358
1683
1251
-413
-1406
-682
926
1435
181
-1350
-1516
-35
1405
1146
-378
-1448
-828
931
1726
660
-964
-1342
-20
1380
1082
-556
-1718
-1090
738
1662
659
-958
-1406
-147
1441
1414
-148
-1418
-1024
676
1618
580
-1168
-1723
-415
1274
1379
-114
-1373
-1023
613
1665
832
-869
-1605
-498
1285
1554
-41
-1594
-1417
370
1639
920
-731
-1463
-485
1133
1439
56
-1439
-1398
237
1635
1097
-647
-1654
-901
828
1494
346
-1224
-1431
23
1484
1134
-465
-1454
-736
972
1571
391
-1123
-1449
-143
1298
1090
-404
-1497
-995
727
1585
585
-976
-1387
-83
1417
1200
-332
-1475
-1004
664
1459
501
-1025
-1430
-155
1299
1269
-128
-1315
-932
580
1380
602
-840
-1343
-260
1176
1215
-223
-1513
-1183
460
1557
818
-769
-1357
-291
1297
1427
-119
-1499
-1216
522
1638
724
-965
-1570
-509
1157
1362
33
-1273
-1196
315
1485
832
-770
-1585
-650
1190
1695
379
-1274
-1462
150
1565
1084
-595
-1587
-721
1104
1627
335
-1223
-1368
107
1545
1221
-429
-1588
-962
744
1502
456
-1114
-1455
-11
1536
1348
-206
-1465
-996
670
1508
539
-985
-1280
-95
1286
1204
-147
-1344
-1053
553
1549
714
-916
-1428
-283
1207
1197
-200
-1368
-1004
616
1593
762
-846
-1406
-316
1206
1348
-22
-1232
-963
535
1464
610
-971
-1546
-443
1215
1455
112
-1285
-1227
301
1474
881
-710
-1518
-575
1047
1436
105
-1349
-1260
312
1530
970
-583
-1349
-427
1180
1431
-74
-1539
-1359
344
1503
829
-695
-1432
-662
878
1389
169
-1385
-1421
225
1712
1282
-378
-1384
-859
682
1547
716
-888
-1533
-368
1343
1302
-368
-1550
-1043
622
1607
780
-761
-1394
-318
1285
1307
-277
-1626
-1052
849
1618
469
-1022
-1436
-272
1303
1465
-13
-1507
-1213
631
1720
853
-891
-1555
-549
894
1200
137
-1183
-1424
11
1547
1338
-459
-1664
-781
1119
1696
324
-1145
-1228
349
1597
1086
-640
-1639
-754
1156
1763
309
-1348
-1323
348
1705
1078
-535
-1552
-794
1128
1936
546
-1221
-1395
339
1786
1195
-561
-1402
-495
1201
1520
386
-1000
-1169
184
1541
1126
-453
-1417
-559
1079
1642
474
-861
-1187
-52
1212
1252
-32
-1269
-1019
701
1772
786
-1004
-1445
-208
1442
1532
36
-1342
-916
734
1785
772
-992
-1705
-329
1537
1460
-315
-1443
-1002
702
1645
853
-856
-1521
-223
1551
1568
54
-1326
-1020
585
1556
622
-858
-1316
-342
1091
1376
115
-1264
-1218
306
1390
894
-425
-1170
-567
889
1329
227
-1088
-1306
-97
1391
1294
-250
-1478
-831
933
1682
581
-1043
-1562
-234
1567
1496
-325
-1710
-1128
861
1811
596
-1304
-1604
-98
1539
1259
-393
-1510
-803
1009
1613
264
-1118
-1185
83
1324
1151
-307
-1295
-932
642
1303
587
-825
-1397
-428
1060
1326
77
-1264
-1287
114
1602
1059
-838
-1836
-597
1330
1540
-5
-1308
-1203
481
1495
662
-967
-1565
-483
1241
1488
27
-1514
-1298
405
1575
823
-874
-1727
-741
1199
1595
133
-1310
-1324
231
1469
973
-675
-1523
-684
1163
1629
304
-1184
-1337
120
1464
1070
-525
-1524
-929
737
1643
560
-1119
-1602
-133
1492
1253
-509
-1513
-883
813
1589
548
-1055
-1532
-221
1449
1404
-260
-1548
-988
868
1670
463
-1103
-1412
-240
1218
1260
-151
-1355
-1167
517
1646
678
-1097
-1692
-297
1383
1385
-120
-1348
-1052
509
1645
948
-741
-1599
-604
1109
1509
-7
-1389
-1199
269
1375
806
-698
-1527
-662
1075
1584
252
-1336
-1329
346
1695
1141
-587
-1547
-763
1040
1639
338
-1378
-1452
162
1677
1072
-765
-1750
-786
1059
1654
346
-1247
-1413
199
1621
1204
-565
-1633
-767
1093
1638
324
-1215
-1320
-14
1380
1083
-411
-1432
-808
926
1678
592
-1007
-1393
-85
1285
1088
-370
-1530
-1091
577
1587
702
-951
-1478
-321
1233
1356
-111
-1377
-1044
631
1782
878
-883
-1565
-449
1287
1383
-195
-1564
-1212
491
1552
793
-915
-1610
-535
1159
1405
56
-1338
-1118
476
1566
856
-690
-1455
-599
1039
1491
304
-1267
-1397
72
1372
976
-535
-1507
-779
940
1542
467
-1108
-1445
-113
1462
1346
-343
-1618
-993
1065
1868
494
-1377
-1616
74
1632
1226
-429
-1420
-763
910
1653
547
-1154
-1624
-212
1490
1405
-304
-1511
-917
887
1566
399
-1026
-1358
-167
1315
1327
-87
-1295
-966
680
1665
695
-986
-1513
-291
1260
1297
-125
-1275
-1067
357
1401
756
-790
-1514
-516
1269
1602
161
-1345
-1288
263
1437
888
-654
-1462
-610
1101
1593
197
-1400
-1503
119
1602
1079
-733
-1653
-661
1198
1720
331
-1375
-1501
104
1537
1077
-617
-1625
-771
1133
1732
277
-1383
-1459
124
1576
1155
-554
-1585
-839
927
1520
300
-1242
-1446
-50
1441
1137
-537
-1635
-967
755
1527
478
-1114
-1505
-106
1381
1316
-173
-1472
-1131
540
1509
650
-1043
-1589
-337
1281
1321
-218
-1577
-1281
472
1579
693
-985
-1624
-417
1351
1525
-76
-1535
-1222
484
1586
764
-903
-1535
-505
1166
1345
-33
-1388
-1323
229
1505
865
-777
-1588
-578
1125
1445
90
-1374
-1391
187
1442
937
-580
-1534
-851
836
1524
371
-1229
-1448
62
1537
1170
-547
-1655
-942
829
1534
303
-1339
-1598
-110
1549
1343
-433
-1715
-1032
842
1685
540
-1178
-1530
-65
1558
1384
-315
-1586
-1078
698
1637
590
-1174
-1606
-192
1457
1292
-378
-1604
-1125
582
1501
599
-941
-1515
-368
1286
1400
-113
-1460
-1124
589
1650
798
-911
-1574
-427
1221
1438
10
-1442
-1278
460
1708
897
-892
-1725
-697
1084
1475
125
-1344
-1273
341
1630
1015
-695
-1626
-648
1154
1570
283
-1132
-1169
277
1503
969
-633
-1506
-664
1057
1526
269
-1216
-1405
-16
1357
1010
-463
-1427
-772
940
1695
605
-1132
-1621
-222
1460
1343
-276
-1540
-966
843
1699
585
-1086
-1572
-330
1307
1327
-200
-1480
-1127
517
1455
512
-1014
-1430
-199
1307
1267
-202
-1479
-1172
552
1650
758
-960
-1513
-287
1396
1424
-118
-1549
-1350
367
1583
872
-833
-1594
-642
1059
1413
42
-1367
-1273
300
1566
1006
-680
-1609
-758
967
1494
238
-1290
-1354
177
1547
1031
-720
-1692
-828
1002
1588
310
-1269
-1378
145
1497
957
-730
-1677
-806
1061
1705
345
-1349
-1538
-2
1494
1114
-572
-1591
-866
934
1715
579
-1150
-1649
-315
1362
1379
-242
-1565
-1097
665
1603
565
-1119
-1620
-323
1323
1360
-138
-1397
-1024
673
1558
518
-1156
-1592
-251
1416
1430
-209
-1647
-1336
477
1630
761
-1019
-1678
-462
1355
1505
-53
-1546
-1381
336
1605
976
-758
-1650
-703
1073
1479
90
-1412
-1276
394
1616
947
-714
-1575
-690
998
1426
169
-1286
-1347
211
1560
993
-719
-1668
-867
917
1543
336
-1219
-1399
120
1620
1212
-504
-1651
-900
974
1707
471
-1214
-1536
-153
1369
1182
-450
-1650
-1092
696
1611
573
-1128
-1544
-178
1387
1225
-314
-1451
-980
656
1559
646
-1000
-1649
-413
1315
1372
-228
-1619
-1241
557
1620
711
-1048
-1681
-485
1266
1430
-161
-1613
-1379
416
1659
850
-985
-1801
-679
1145
1454
10
-1455
-1282
411
1666
904
-854
-1713
-730
1023
1370
-18
-1451
-1411
126
1382
857
-793
-1702
-794
1038
1580
269
-1335
-1493
64
1528
1054
-679
-1699
-830
980
1570
325
-1306
-1598
-108
1431
1120
-547
-1647
-946
894
1608
405
-1228
-1561
-217
1320
1194
-375
-1558
-1072
657
1525
485
-1150
-1574
-196
1434
1329
-214
-1485
-1128
568
1556
609
-1119
-1678
-453
1249
1390
-115
-1479
-1229
443
1568
752
-925
-1607
-464
1245
1416
-108
-1538
-1309
374
1584
851
-907
-1751
-734
1067
1461
54
-1451
-1428
195
1519
912
-785
-1678
-749
1025
1534
242
-1294
-1375
169
1545
1048
-663
-1684
-873
957
1583
240
-1441
-1613
-53
1467
1109
-556
-1652
-918
933
1654
437
-1242
-1551
-86
1463
1226
-402
-1553
-969
779
1604
504
-1186
-1626
-214
1455
1339
-332
-1582
-1052
740
1614
551
-1137
-1663
-385
1326
1372
-226
-1589
-1216
509
1578
698
-983
-1614
-424
1297
1447
-129
-1576
-1312
487
1629
756
-976
-1698
-571
1156
1394
-54
-1528
-1407
296
1561
848
-835
-1652
-684
1076
1499
153
-1407
-1471
183
1585
998
-772
-1752
-821
1040
1508
144
-1420
-1555
5
1475
1063
-663
-1753
-951
933
1599
310
-1321
-1522
-17
1465
1137
-538
-1705
-1082
775
1597
435
-1273
-1651
-168
1439
1195
-465
-1683
-1127
659
1523
474
-1154
-1590
-285
1341
1301
-288
-1598
-1189
569
1621
684
-1041
-1627
-412
1336
1422
-203
-1589
-1268
535
1687
790
-1028
-1717
-480
1297
1456
-91
-1559
-1308
459
1673
916
-813
-1662
-664
1147
1523
69
-1494
-1422
277
1581
922
-813
-1651
-675
1092
1521
143
-1415
-1476
162
1558
1007
-727
-1715
-839
954
1537
289
-1321
-1524
0
1533
1169
-549
-1685
-982
828
1561
391
-1307
-1622
-105
1491
1236
-494
-1646
-991
812
1616
504
-1186
-1622
-252
1378
1261
-326
-1548
-1080
687
1657
668
-1053
-1592
-296
1365
1341
-279
-1618
-1218
617
1649
683
-975
-1628
-471
1291
1464
-92
-1528
-1261
467
1645
840
-927
-1705
-579
1208
1432
-16
-1433
-1227
440
1601
897
-762
-1602
-667
1103
1496
122
-1413
-1412
179
1549
1067
-620
-1630
-795
1001
1551
258
-1349
-1491
64
1558
1119
-632
-1664
-909
913
1599
299
-1338
-1520
-37
1439
1158
-500
-1666
-1031
793
1591
430
-1193
-1584
-193
1399
1193
-494
-1726
-1140
708
1651
614
-1162
-1629
-257
1392
1333
-253
-1557
-1140
622
1660
639
-1076
-1612
-380
1337
1415
-134
-1570
-1272
482
1638
772
-987
-1661
-475
1338
1554
13
-1452
-1300
420
1650
877
-890
-1664
-554
1250
1573
124
-1416
-1426
264
1659
995
-752
-1681
-720
1138
1600
137
-1404
-1440
210
1583
1064
-654
-1651
-803
1011
1643
360
-1323
-1511
80
1558
1114
-636
-1695
-936
941
1653
410
-1249
-1476
-22
1557
1269
-458
-1637
-1026
725
1553
521
-1150
-1543
-141
1500
1346
-347
-1568
-1075
731
1724
646
-1072
-1587
-315
1384
1387
-215
-1626
-1216
630
1662
723
-984
-1605
-383
1367
1440
-79
-1477
-1195
553
1667
811
-885
-1603
-497
1259
1489
1
-1473
-1284
435
1651
947
-767
-1638
-651
1147
1584
171
-1404
-1405
255
1698
1149
-688
-1668
-713
1156
1658
235
-1385
-1438
156
1589
1163
-623
-1650
-890
966
1660
384
-1291
-1514
25
1542
1196
-515
-1627
-945
870
1651
512
-1194
-1611
-161
1466
1271
-403
-1647
-1072
717
1621
531
-1167
-1643
-311
1367
1337
-212
-1568
-1156
674
1682
686
-1068
-1616
-366
1348
1459
-127
-1495
-1204
545
1664
788
-944
-1626
-454
1292
1480
-55
-1521
-1334
402
1670
882
-913
-1681
-540
1252
1560
40
-1462
-1395
274
1602
1019
-766
-1652
-662
1159
1575
194
-1375
-1422
235
1666
1044
-723
-1683
-773
1017
1585
335
-1330
-1442
106
1560
1144
-604
-1711
-913
997
1678
404
-1267
-1538
68
1649
1264
-421
-1604
-971
804
1621
520
-1168
-1582
-148
1534
1387
-295
-1558
-1063
781
1670
599
-1079
-1580
-325
1377
1464
-171
-1572
-1149
672
1770
791
-985
-1589
-343
1405
1494
-99
-1533
-1244
522
1706
868
-903
-1698
-541
1315
1546
-55
-1539
-1257
450
1664
913
-760
-1587
-637
1159
1636
233
-1384
-1423
248
1646
1051
-790
-1682
-691
1156
1628
250
-1402
-1493
115
1578
1109
-607
-1686
-844
1046
1686
364
-1310
-1530
9
1568
1240
-436
-1581
-938
939
1742
530
-1222
-1616
-93
1602
1327
-456
-1618
-1006
813
1683
585
-1155
-1588
-174
1450
1392
-208
-1545
-1101
729
1772
766
-1072
-1640
-308
1375
1371
-165
-1489
-1188
528
1661
838
-947
-1716
-515
1334
1563
-15
-1535
-1303
443
1625
864
-859
-1619
-581
1247
1600
144
-1405
-1311
363
1673
981
-827
-1690
-650
1203
1587
168
-1453
-1499
159
1631
1095
-672
-1691
-823
1072
1705
366
-1306
-1497
98
1620
1183
-551
-1634
-898
973
1665
465
-1205
-1557
-72
1558
1299
-413
-1646
-1067
816
1665
540
-1188
-1610
-212
1512
1393
-327
-1627
-1074
820
1762
671
-1092
-1602
-275
1468
1478
-174
-1548
-1136
713
1761
785
-978
-1615
-373
1401
1513
-70
-1498
-1271
506
1766
1006
-799
-1616
-452
1375
1602
62
-1451
-1229
479
1697
983
-755
-1582
-578
1224
1652
191
-1403
-1403
284
1700
1096
-647
-1583
-674
1120
1622
256
-1347
-1409
203
1643
1160
-528
-1527
-744
1039
1612
344
-1251
-1495
9
1564
1241
-475
-1602
-885
976
1668
438
-1222
-1557
-40
1556
1307
-362
-1560
-953
843
1711
664
-1028
-1522
-223
1507
1489
-212
-1559
-1062
759
1751
758
-994
-1556
-244
1432
1422
-145
-1533
-1214
602
1787
874
-881
-1536
-366
1408
1601
-1
-1469
-1247
487
1672
914
-815
-1523
-437
1306
1635
143
-1400
-1303
400
1664
1001
-672
-1568
-617
1193
1668
320
-1279
-1342
268
1689
1197
-574
-1629
-775
1111
1720
378
-1281
-1446
163
1695
1247
-539
-1700
-960
972
1735
462
-1270
-1524
66
1620
1297
-429
-1607
-954
916
1756
613
-1142
-1550
-98
1545
1388
-324
-1588
-1011
856
1751
601
-1128
-1589
-206
1517
1463
-220
-1558
-1058
790
1788
776
-955
-1588
-302
1505
1596
-14
-1418
-1173
611
1802
954
-870
-1659
-519
1345
1597
51
-1454
-1259
508
1743
983
-813
-1667
-611
1287
1724
249
-1404
-1413
356
1796
1141
-654
-1635
-709
1164
1633
235
-1374
-1419
240
1663
1084
-684
-1681
-868
1046
1766
397
-1398
-1585
72
1657
1300
-426
-1563
-867
960
1705
520
-1147
-1508
-80
1531
1306
-403
-1647
-992
843
1707
585
-1131
-1604
-260
1363
1334
-249
-1606
-1153
665
1717
799
-981
-1587
-253
1508
1499
-205
-1610
-1175
680
1801
846
-1025
-1717
-488
1382
1598
17
-1546
-1363
383
1632
932
-811
-1616
-564
1251
1615
94
-1471
-1255
569
1843
990
-969
-1778
-518
1399
1535
-99
-1452
-1230
370
1546
899
-633
-1558
-700
1164
1731
127
-1573
-1344
460
1694
887
-777
-1464
-670
915
1492
507
-945
-1342
-70
1350
1015
-534
-1461
-840
604
1192
377
-892
-1302
-282
1200
1334
-90
-1436
-1100
560
1475
636
-871
-1496
-487
1141
1410
29
-1379
-1191
488
1720
977
-843
-1703
-646
1141
1601
254
-1424
-1592
137
1655
1053
-759
-1651
-656
1211
1746
353
-1333
-1454
204
1754
1288
-642
-1820
-848
1195
1730
233
-1477
-1554
232
1841
1270
-645
-1772
-867
1093
1686
324
-1420
-1676
3
1707
1408
-320
-1626
-1007
950
1826
572
-1298
-1654
-26
1655
1332
-488
-1759
-1053
890
1720
463
-1315
-1676
-104
1673
1447
-371
-1690
-1020
906
1770
608
-1201
-1645
-181
1532
1449
-226
-1565
-1079
795
1805
750
-1079
-1696
-396
1309
1341
-223
-1597
-1257
571
1713
803
-990
-1635
-423
1341
1504
-86
-1542
-1351
337
1662
994
-809
-1716
-650
1257
1627
42
-1538
-1385
397
1696
957
-894
-1850
-771
1189
1655
136
-1540
-1525
241
1756
1187
-699
-1755
-773
1160
1604
228
-1262
-1353
75
1394
1045
-518
-1541
-784
1024
1597
351
-1230
-1580
-258
1395
1411
-344
-1928
-1364
764
1931
784
-1139
-1725
-200
1719
1474
-624
-2038
-1084
1137
1798
325
-1372
-1592
-121
1448
1361
-238
-1569
-1109
585
1359
510
-828
-1418
-536
1156
1494
-31
-1444
-1091
617
1684
917
-915
-1947
-784
1401
1731
-114
-1662
-1309
493
1700
998
-775
-1706
-644
1212
1520
-48
-1574
-1403
261
1585
1099
-637
-1680
-709
1239
1820
341
-1375
-1557
-52
1512
1268
-577
-1849
-950
1072
1739
381
-1375
-1574
93
1672
1282
-637
-1923
-964
1113
1740
468
-1220
-1641
11
1786
1456
-379
-1643
-993
831
1554
466
-1125
-1656
-361
1484
1491
-220
-1659
-1301
769
1998
793
-1243
-1925
-533
1425
1527
-227
-1639
-1195
770
1934
897
-949
-1588
-432
1316
1339
-289
-1666
-1359
454
1755
940
-991
-1814
-549
1455
1694
15
-1538
-1415
278
1648
1011
-780
-1673
-671
1174
1738
377
-1299
-1434
202
1700
1068
-876
-1888
-856
1055
1646
296
-1435
-1605
159
1777
1304
-589
-1719
-918
880
1595
400
-1349
-1697
-23
1789
1497
-463
-1738
-940
1033
1807
493
-1469
-1985
-334
1523
1309
-441
-1730
-1132
776
1839
781
-1081
-1661
-264
1331
1184
-327
-1625
-1295
604
1819
779
-1066
-1607
-155
1675
1580
-272
-1868
-1529
430
1643
535
-1188
-1581
-386
1315
1542
111
-1340
-1221
533
1613
767
-969
-1715
-779
1105
1750
154
-1525
-1398
450
1820
1102
-696
-1882
-980
1029
1647
30
-1714
-1343
422
1711
1158
-537
-1442
-648
1304
1580
13
-1425
-1366
38
1297
1277
-195
-1656
-1026
963
2056
688
-1135
-1608
-363
1325
1455
-358
-2084
-1488
1115
1962
474
-1364
-1511
239
1819
1650
-404
-2027
-1320
1028
1784
286
-1223
-1290
-301
1323
1374
28
-1419
-1136
746
1679
406
-1178
-1462
-392
956
1438
145
-1593
-1390
607
2063
1092
-815
-1692
-730
876
1419
417
-1315
-1863
124
2023
1146
-938
-1723
-677
1291
1829
156
-1576
-1742
-123
1871
1458
-977
-2100
-536
1468
1720
226
-1480
-1330
448
1634
1065
-690
-2102
-1016
1408
1946
147
-1497
-1466
93
1532
1180
-413
-1652
-1080
884
1920
564
-1468
-1754
190
1858
1220
-517
-1412
-1072
650
1722
682
-1220
-1588
-142
1699
1547
-549
-1917
-921
1031
1527
342
-1097
-1590
-524
1134
1358
-48
-1446
-1310
565
2014
1018
-1172
-1773
-312
1356
1196
-236
-1479
-1307
226
1480
1037
-717
-1692
-710
1276
1805
79
-1701
-1297
592
1468
474
-865
-1477
-601
977
1522
469
-1118
-1391
197
2016
1416
-934
-2177
-908
1265
1522
-66
-1447
-1332
248
1608
1236
-350
-1497
-994
882
1894
662
-1397
-1867
-155
1717
1393
-533
-1685
-848
1055
1800
691
-1007
-1619
-326
1475
1469
-303
-1823
-1153
874
1788
526
-1151
-1527
-167
1594
1600
-108
-1516
-1206
731
1892
884
-1142
-1827
-415
1459
1640
-1
-1434
-1219
464
1646
903
-840
-1762
-648
1300
1650
50
-1651
-1429
433
1713
1023
-781
-1691
-592
1281
1669
108
-1604
-1514
379
1732
969
-818
-1717
-717
1168
1655
229
-1485
-1579
84
1542
1071
-677
-1699
-764
1122
1655
408
-1171
-1559
-105
1665
1394
-405
-1609
-1025
863
1819
632
-1244
-1680
-133
1611
1412
-383
-1733
-1081
799
1696
602
-1176
-1664
-249
1512
1533
-144
-1591
-1209
757
1907
792
-1158
-1783
-343
1473
1467
-182
-1637
-1362
519
1806
914
-971
-1742
-526
1367
1570
-52
-1656
-1492
385
1775
997
-954
-1770
-493
1419
1692
136
-1475
-1451
377
1780
1037
-872
-1823
-689
1191
1542
117
-1372
-1436
149
1658
1245
-601
-1722
-833
1044
1625
398
-1122
-1389
28
1519
1262
-346
-1641
-1135
855
1862
565
-1274
-1561
-60
1339
1097
-213
-1238
-1084
322
1543
1010
-839
-1954
-703
1569
1790
-230
-1862
-1152
1128
1975
419
-1324
-1298
119
1210
1037
20
-1035
-1203
-1
1481
1184
-818
-2011
-588
1703
1886
-164
-1927
-1456
864
2041
595
-1342
-1438
79
1355
1136
-6
-1081
-1308
43
1796
1491
-637
-1965
-947
1086
1804
417
-1689
-1901
353
2297
1332
-1144
-1997
-357
1498
1378
2
-1136
-1227
157
1475
931
-560
-1307
-793
658
1624
953
-948
-1916
-448
1800
1578
-660
-1867
-774
1196
1805
383
-1445
-1633
170
1597
1025
-480
-1302
-841
561
1592
928
-998
-1962
-389
1880
1787
-323
-1880
-1282
916
1985
435
-1688
-1749
57
1396
985
-232
-1169
-1174
142
1667
1298
-706
-1923
-808
1325
1796
7
-1970
-1653
851
2248
753
-1389
-1602
-135
1211
1224
196
-1007
-1363
-151
1441
1385
-451
-2068
-1350
1299
2341
328
-1883
-1580
647
1854
838
-891
-1461
-519
978
1497
639
-894
-1621
-376
1655
1706
-410
-2083
-1205
1215
1980
368
-1370
-1369
137
1403
1154
-167
-1484
-1318
639
2024
833
-1300
-1813
-60
1858
1577
-382
-1599
-1004
585
1447
785
-799
-1827
-710
1566
1877
-169
-1871
-1247
869
1915
712
-1158
-1582
-296
1274
1541
222
-1547
-1724
354
1970
1080
-996
-1780
-464
1496
1773
39
-1717
-1639
313
1808
1103
-932
-2023
-772
1366
1819
169
-1574
-1450
608
2054
1160
-713
-1559
-620
1297
1772
186
-1560
-1710
15
1727
1313
-620
-1730
-721
1332
1882
322
-1390
-1516
80
1591
1199
-588
-1765
-970
1012
1931
688
-1228
-1558
51
1656
1279
-455
-1668
-1057
773
1624
508
-1238
-1674
-69
1768
1565
-185
-1581
-1183
662
1611
638
-907
-1522
-470
1235
1486
-63
-1579
-1290
672
1965
867
-1238
-1842
-375
1462
1543
-103
-1712
-1496
317
1675
953
-918
-1671
-513
1229
1444
-11
-1389
-1242
340
1627
1005
-790
-1784
-706
1442
2021
290
-1672
-1654
323
1849
978
-1031
-1753
-612
1204
1727
443
-1206
-1511
31
1727
1261
-711
-1773
-748
1101
1619
424
-1233
-1561
-84
1715
1552
-329
-1648
-1053
720
1579
701
-852
-1574
-400
1545
1657
-247
-1788
-1095
988
1903
739
-1119
-1763
-402
1581
1849
-1
-1856
-1380
751
1763
591
-1153
-1645
-326
1474
1572
-118
-1811
-1554
617
2047
960
-1134
-1808
-469
1376
1566
-3
-1501
-1223
501
1627
826
-961
-1803
-565
1553
1773
-23
-1619
-1469
286
1759
1197
-709
-1804
-897
1061
1712
267
-1488
-1446
477
1946
1196
-695
-1744
-966
912
1703
552
-1143
-1478
170
1962
1710
-284
-1738
-872
1285
1866
74
-1698
-1572
160
1592
1310
-262
-1432
-1047
658
1699
849
-976
-1760
-438
1488
1576
-296
-1881
-1204
954
1906
619
-1243
-1663
-216
1493
1590
49
-1364
-1177
567
1602
633
-1093
-1608
-412
1315
1638
195
-1455
-1386
468
1820
1001
-934
-1886
-741
1276
1726
147
-1584
-1504
433
1836
990
-950
-1839
-878
1011
1542
147
-1537
-1716
13
1704
1238
-684
-1726
-646
1265
1605
130
-1412
-1500
75
1656
1347
-417
-1676
-1021
922
1729
484
-1302
-1590
56
1731
1414
-366
-1741
-1172
918
1980
686
-1322
-1751
-130
1632
1374
-366
-1677
-1171
776
1833
716
-1148
-1690
-224
1569
1378
-400
-1655
-1071
716
1691
766
-999
-1731
-542
1354
1594
-80
-1627
-1249
718
1940
981
-849
-1701
-675
1266
1715
63
-1739
-1608
453
1951
1089
-977
-1892
-658
1346
1757
139
-1487
-1490
261
1753
1081
-856
-1702
-533
1331
1667
171
-1414
-1442
183
1647
1182
-639
-1730
-828
1184
1892
478
-1282
-1507
18
1599
1300
-384
-1657
-996
964
1836
587
-1284
-1633
-45
1727
1487
-380
-1653
-964
979
1904
786
-1131
-1705
-292
1551
1437
-287
-1702
-1137
869
1946
824
-1077
-1660
-300
1491
1600
-23
-1542
-1224
647
1830
881
-1024
-1727
-398
1438
1578
-109
-1622
-1378
507
1816
948
-966
-1779
-522
1422
1735
216
-1357
-1335
329
1633
994
-849
-1851
-805
1217
1774
225
-1551
-1578
215
1688
1118
-567
-1566
-691
1081
1653
285
-1469
-1668
103
1742
1271
-566
-1720
-920
1059
1837
561
-1330
-1699
77
1804
1427
-429
-1649
-971
930
1746
591
-1200
-1677
-137
1683
1589
-240
-1642
-1150
791
1828
705
-1078
-1533
-60
1659
1494
-240
-1727
-1306
647
1853
846
-1057
-1688
-346
1414
1532
-24
-1540
-1329
656
1991
1081
-958
-1846
-591
1303
1559
29
-1437
-1317
393
1789
1084
-786
-1667
-596
1291
1695
182
-1497
-1400
474
1901
1093
-878
-1798
-744
1191
1629
203
-1386
-1503
174
1735
1285
-572
-1759
-949
1014
1846
525
-1319
-1599
107
1790
1271
-617
-1744
-908
957
1719
486
-1273
-1608
22
1753
1440
-436
-1722
-1029
1030
1973
654
-1340
-1803
-80
1700
1376
-398
-1614
-1033
766
1757
785
-997
-1648
-326
1540
1704
-2
-1561
-1233
696
1799
787
-975
-1602
-418
1263
1441
7
-1489
-1367
487
1798
903
-933
-1584
-357
1430
1616
48
-1520
-1553
225
1777
1241
-749
-1846
-788
1247
1714
211
-1499
-1585
111
1702
1333
-525
-1783
-968
1059
1749
294
-1581
-1671
265
1875
1179
-768
-1801
-832
1214
1794
300
-1487
-1646
4
1694
1392
-445
-1777
-1115
911
1795
527
-1288
-1691
-215
1563
1452
-282
-1648
-1142
768
1699
582
-1132
-1620
-196
1551
1489
-221
-1712
-1365
536
1811
883
-1078
-1880
-518
1413
1581
-107
-1704
-1455
496
1860
933
-1057
-1837
-600
1353
1698
-12
-1687
-1453
510
1776
867
-976
-1733
-583
1300
1631
-23
-1682
-1529
306
1778
1115
-831
-1856
-738
1282
1643
58
-1493
-1480
145
1632
1180
-572
-1670
-919
903
1651
436
-1324
-1569
126
1685
1177
-574
-1670
-989
840
1680
470
-1317
-1705
-133
1614
1496
-293
-1771
-1280
769
1916
809
-1176
-1770
-238
1664
1599
-301
-1830
-1262
805
1810
656
-1175
-1717
-300
1497
1380
-446
-1779
-1186
810
1851
756
-1068
-1693
-338
1520
1549
-155
-1624
-1298
554
1792
993
-864
-1718
-710
1123
1581
71
-1635
-1575
231
1641
993
-786
-1692
-658
1231
1658
99
-1541
-1508
326
1887
1219
-781
-1887
-837
1208
1752
142
-1596
-1573
228
1710
1221
-576
-1703
-956
888
1588
401
-1273
-1630
-118
1472
1133
-557
-1699
-968
936
1822
629
-1228
-1725
-149
1697
1479
-428
-1793
-1207
767
1784
607
-1238
-1728
-288
1444
1375
-365
-1729
-1284
644
1805
803
-1091
-1747
-430
1432
1552
-115
-1668
-1389
604
1887
874
-1087
-1867
-549
1415
1671
-64
-1742
-1542
399
1742
907
-1016
-1853
-588
1332
1647
103
-1453
-1350
343
1603
889
-859
-1708
-676
1193
1674
224
-1518
-1668
118
1754
1239
-692
-1823
-880
1132
1776
400
-1370
-1644
-45
1678
1322
-528
-1736
-974
1077
1811
375
-1364
-1618
10
1674
1353
-495
-1743
-1019
940
1796
547
-1315
-1755
-250
1559
1485
-283
-1732
-1208
786
1797
673
-1211
-1726
-275
1517
1536
-123
-1525
-1173
524
1545
694
-889
-1614
-586
1190
1601
77
-1647
-1584
350
1813
1020
-915
-1748
-586
1358
1732
186
-1490
-1569
202
1889
1274
-891
-2018
-703
1519
1817
47
-1589
-1525
147
1579
1036
-731
-1737
-745
1291
1923
417
-1532
-1813
104
1927
1360
-769
-1873
-766
1173
1568
164
-1414
-1635
-88
1596
1423
-418
-1753
-1048
1004
1869
469
-1501
-1838
-109
1671
1362
-438
-1641
-1050
743
1645
691
-1131
-1808
-352
1627
1600
-251
-1739
-1202
859
1883
595
-1328
-1741
-206
1515
1321
-346
-1656
-1302
479
1699
855
-1071
-1870
-496
1531
1727
-13
-1557
-1282
589
1745
736
-1064
-1682
-473
1278
1490
40
-1495
-1539
122
1581
1000
-854
-1815
-755
1198
1702
257
-1395
-1475
273
1711
1052
-688
-1639
-824
953
1681
450
-1433
-1816
-35
1793
1369
-625
-1879
-998
1020
1805
502
-1255
-1624
-26
1641
1323
-427
-1633
-1086
750
1774
745
-1206
-1770
-221
1661
1537
-370
-1775
-1179
791
1783
768
-985
-1679
-352
1500
1538
-171
-1667
-1352
516
1724
782
-1105
-1855
-520
1488
1679
-84
-1647
-1285
659
1871
967
-900
-1713
-531
1315
1578
-8
-1553
-1436
326
1793
1107
-860
-1868
-792
1194
1685
180
-1546
-1522
357
1889
1243
-690
-1688
-687
1189
1687
236
-1434
-1552
144
1728
1201
-704
-1792
-929
1014
1712
408
-1334
-1596
-5
1641
1361
-434
-1703
-1023
995
1900
620
-1319
-1823
-225
1621
1411
-482
-1792
-1084
926
1860
624
-1269
-1758
-284
1536
1484
-297
-1715
-1207
809
1904
783
-1149
-1754
-389
1417
1467
-216
-1706
-1387
545
1861
1004
-948
-1748
-496
1412
1619
-20
-1672
-1483
499
1862
960
-971
-1841
-646
1277
1567
-21
-1599
-1480
348
1745
1048
-809
-1787
-737
1213
1736
361
-1379
-1603
84
1722
1262
-668
-1833
-963
1097
1784
336
-1502
-1681
59
1685
1216
-682
-1830
-935
1116
1890
607
-1231
-1606
23
1720
1417
-399
-1719
-1130
896
1865
620
-1272
-1720
-213
1545
1391
-411
-1765
-1199
737
1817
776
-1111
-1727
-269
1634
1593
-211
-1703
-1286
705
1907
834
-1114
-1791
-471
1411
1610
-31
-1648
-1378
583
1862
929
-1074
-1900
-582
1389
1686
83
-1487
-1380
401
1774
1018
-836
-1716
-673
1243
1784
325
-1429
-1446
328
1777
1148
-750
-1816
-850
1221
1848
351
-1426
-1598
152
1782
1278
-690
-1880
-957
1149
1978
514
-1418
-1624
100
1729
1347
-521
-1747
-981
1030
1834
522
-1292
-1721
-190
1638
1504
-358
-1762
-1159
826
1850
621
-1285
-1760
-236
1599
1560
-133
-1577
-1158
778
1821
784
-1047
-1746
-496
1454
1732
25
-1668
-1478
476
1845
959
-1055
-1852
-517
1465
1713
0
-1668
-1436
541
1866
983
-919
-1782
-591
1388
1762
113
-1608
-1558
284
1768
1065
-864
-1800
-757
1191
1686
249
-1468
-1627
131
1780
1328
-615
-1808
-864
1174
1802
340
-1432
-1608
71
1719
1274
-563
-1778
-1012
1019
1837
545
-1297
-1663
-129
1619
1454
-386
-1755
-1106
901
1888
665
-1224
-1748
-195
1661
1535
-329
-1797
-1213
849
1953
760
-1207
-1703
-159
1652
1511
-273
-1690
-1264
650
1783
808
-1075
-1794
-444
1526
1709
-42
-1627
-1290
599
1847
951
-957
-1747
-497
1465
1758
114
-1562
-1474
422
1836
1049
-887
-1831
-694
1322
1711
152
-1522
-1504
305
1812
1223
-699
-1778
-818
1196
1793
357
-1360
-1478
238
1807
1315
-580
-1773
-901
1102
1814
432
-1364
-1629
29
1741
1381
-538
-1831
-1074
1004
1890
597
-1278
-1645
-14
1723
1436
-391
-1644
-1007
865
1774
671
-1146
-1722
-303
1470
1400
-255
-1595
-1131
751
1799
728
-1151
-1791
-376
1555
1637
-72
-1570
-1286
642
1949
970
-1061
-1848
-467
1531
1681
-130
-1714
-1368
585
1903
1041
-956
-1878
-637
1376
1730
123
-1555
-1471
402
1906
1173
-765
-1694
-645
1245
1741
310
-1396
-1535
160
1786
1331
-595
-1820
-919
1132
1805
361
-1453
-1683
164
1875
1310
-668
-1802
-845
1158
1826
455
-1276
-1537
35
1694
1396
-418
-1703
-1059
901
1826
651
-1244
-1757
-199
1650
1508
-312
-1778
-1207
881
1947
736
-1169
-1689
-203
1620
1564
-206
-1626
-1188
785
1971
955
-995
-1792
-441
1573
1763
16
-1649
-1447
528
1955
1078
-928
-1846
-622
1409
1730
116
-1527
-1355
487
1875
1170
-731
-1711
-615
1367
1799
257
-1416
-1431
322
1760
1169
-710
-1807
-812
1257
1823
276
-1530
-1602
205
1836
1365
-582
-1777
-882
1205
1879
451
-1369
-1637
106
1833
1476
-426
-1759
-1019
971
1795
507
-1328
-1740
-102
1695
1468
-381
-1701
-1028
917
1761
531
-1235
-1668
-194
1646
1616
-188
-1639
-1226
677
1811
792
-1081
-1804
-432
1560
1714
-61
-1733
-1440
578
1866
894
-1054
-1812
-454
1469
1658
-11
-1589
-1353
558
1858
983
-902
-1691
-520
1334
1652
139
-1459
-1429
323
1769
1159
-760
-1825
-766
1310
1850
279
-1499
-1603
144
1741
1276
-638
-1833
-891
1163
1773
351
-1332
-1509
117
1707
1276
-575
-1776
-977
1030
1824
478
-1349
-1696
-109
1615
1348
-547
-1893
-1178
919
1839
563
-1314
-1742
-192
1607
1447
-353
-1749
-1194
790
1851
721
-1196
-1799
-331
1534
1512
-219
-1687
-1344
568
1761
813
-1087
-1834
-485
1465
1614
-137
-1710
-1384
583
1824
897
-1002
-1802
-520
1432
1685
31
-1587
-1392
485
1811
989
-918
-1829
-671
1321
1721
145
-1511
-1475
271
1693
1051
-811
-1812
-811
1176
1755
320
-1377
-1490
177
1750
1290
-637
-1840
-958
1147
1870
398
-1414
-1584
88
1701
1313
-534
-1757
-1009
965
1749
518
-1270
-1702
-136
1684
1542
-316
-1725
-1123
827
1723
587
-1196
-1682
-231
1558
1496
-279
-1744
-1310
649
1805
766
-1131
-1819
-487
1387
1516
-171
-1687
-1309
636
1819
856
-1045
-1800
-491
1457
1626
-74
-1619
-1345
493
1770
947
-886
-1739
-702
1127
1543
63
-1558
-1490
358
1810
1085
-824
-1770
-687
1245
1670
139
-1449
-1431
266
1753
1229
-629
-1747
-805
1212
1785
293
-1497
-1660
96
1761
1261
-673
-1841
-1034
945
1751
439
-1386
-1733
-80
1642
1329
-487
-1709
-1064
890
1868
673
-1266
-1756
-211
1536
1386
-385
-1788
-1192
781
1710
560
-1206
-1816
-449
1403
1514
-235
-1744
-1305
678
1835
830
-1053
-1778
-456
1440
1564
-98
-1631
-1446
392
1713
899
-1039
-1841
-556
1371
1634
49
-1610
-1510
370
1752
946
-956
-1813
-687
1306
1743
134
-1605
-1566
264
1732
1127
-747
-1813
-829
1203
1824
372
-1426
-1623
94
1694
1195
-689
-1821
-923
1065
1718
397
-1334
-1666
-32
1778
1488
-493
-1805
-973
1073
1883
498
-1351
-1677
-66
1607
1296
-492
-1756
-1137
814
1754
615
-1215
-1705
-171
1589
1451
-325
-1758
-1239
740
1760
707
-1149
-1782
-466
1380
1548
-149
-1722
-1376
610
1836
871
-1030
-1777
-471
1409
1539
-121
-1679
-1465
392
1735
993
-917
-1829
-612
1368
1701
108
-1558
-1525
337
1810
1129
-816
-1812
-788
1179
1709
188
-1522
-1525
274
1770
1116
-802
-1822
-853
1153
1719
270
-1480
-1598
110
1693
1219
-656
-1807
-939
1067
1803
417
-1412
-1712
-100
1629
1344
-495
-1774
-1080
890
1803
551
-1380
-1814
-175
1627
1418
-426
-1795
-1199
855
1896
686
-1271
-1815
-308
1552
1519
-258
-1823
-1419
672
1965
887
-1136
-1877
-495
1478
1646
-123
-1733
-1442
465
1698
861
-968
-1803
-618
1363
1653
20
-1634
-1525
372
1863
1119
-891
-1841
-717
1265
1673
118
-1596
-1619
187
1715
1123
-783
-1823
-848
1167
1743
242
-1539
-1571
178
1701
1125
-723
-1770
-877
1048
1680
326
-1412
-1605
57
1734
1357
-539
-1822
-1059
971
1775
484
-1344
-1692
-154
1560
1296
-497
-1764
-1055
936
1823
593
-1232
-1673
-144
1622
1456
-319
-1722
-1240
725
1850
776
-1173
-1807
-321
1567
1547
-271
-1773
-1297
676
1877
868
-1074
-1843
-533
1447
1675
-22
-1657
-1401
581
1927
997
-1005
-1869
-590
1422
1736
54
-1647
-1465
485
1862
1038
-901
-1857
-723
1298
1761
209
-1535
-1556
289
1871
1261
-750
-1872
-880
1203
1849
344
-1509
-1666
100
1709
1277
-536
-1721
-999
1026
1856
479
-1393
-1740
-115
1654
1382
-486
-1790
-1091
923
1830
598
-1261
-1767
-267
1555
1467
-362
-1798
-1265
715
1711
565
-1289
-1844
-346
1533
1496
-269
-1726
-1284
643
1736
744
-1078
-1706
-413
1432
1536
-161
-1721
-1414
500
1780
923
-960
-1760
-515
1370
1573
-73
-1630
-1424
422
1761
1031
-824
-1764
-696
1270
1682
141
-1526
-1504
320
1855
1175
-795
-1827
-734
1275
1756
202
-1541
-1569
205
1798
1193
-739
-1809
-878
1128
1763
336
-1461
-1665
27
1696
1341
-547
-1767
-992
1000
1778
426
-1412
-1711
-70
1661
1408
-430
-1781
-1191
798
1808
675
-1242
-1767
-272
1581
1476
-326
-1785
-1305
699
1824
717
-1174
-1749
-322
1559
1623
-76
-1643
-1376
540
1815
857
-1107
-1896
-582
1410
1678
8
-1603
-1441
456
1809
959
-991
-1871
-605
1414
1721
70
-1552
-1450
325
1737
1035
-854
-1816
-746
1292
1828
284
-1498
-1562
239
1810
1182
-749
-1742
-728
1252
1817
292
-1538
-1706
102
1750
1330
-530
-1772
-903
1169
1883
458
-1386
-1653
9
1696
1349
-480
-1712
-986
1029
1840
562
-1306
-1753
-194
1573
1434
-355
-1699
-1112
839
1825
641
-1301
-1857
-350
1537
1525
-240
-1726
-1268
703
1775
700
-1156
-1840
-464
1494
1611
-145
-1727
-1393
597
1859
914
-1078
-1891
-623
1360
1611
-24
-1572
-1372
485
1811
1034
-911
-1867
-661
1344
1748
204
-1510
-1507
306
1784
1112
-725
-1727
-742
1223
1766
255
-1542
-1554
249
1758
1252
-619
-1755
-930
1107
1851
415
-1373
-1559
144
1797
1392
-533
-1811
-1048
998
1872
563
-1255
-1658
-95
1690
1430
-492
-1876
-1166
909
1858
651
-1254
-1749
-148
1694
1606
-217
-1718
-1222
791
1926
818
-1122
-1711
-203
1608
1519
-284
-1778
-1344
661
1807
781
-1025
-1678
-445
1439
1673
-56
-1737
-1406
606
1877
973
-882
-1699
-571
1324
1641
92
-1523
-1481
283
1730
1115
-759
-1733
-635
1289
1640
137
-1458
-1491
235
1782
1255
-631
-1709
-827
1106
1720
336
-1410
-1554
222
1815
1305
-538
-1710
-895
1169
1965
516
-1387
-1608
91
1753
1357
-566
-1816
-1050
956
1788
536
-1219
-1609
-123
1636
1507
-237
-1554
-983
877
1769
724
-1046
-1656
-251
1590
1546
-299
-1830
-1369
713
1939
776
-1274
-1886
-344
1612
1630
-191
-1809
-1411
689
2037
982
-1014
-1845
-637
1376
1733
80
-1589
-1518
293
1763
1156
-687
-1750
-755
1221
1644
112
-1544
-1565
222
1793
1236
-738
-1819
-743
1285
1716
173
-1453
-1418
353
1851
1208
-659
-1742
-921
1051
1785
387
-1430
-1616
56
1612
1206
-538
-1829
-1143
935
1793
548
-1269
-1644
-55
1692
1369
-546
-1755
-950
1018
1772
529
-1199
-1623
-74
1642
1379
-416
-1736
-1058
918
1818
630
-1224
-1784
-363
1481
1608
-78
-1708
-1432
595
1945
968
-1058
-1902
-569
1533
1787
-3
-1655
-1386
519
1834
940
-1016
-1817
-457
1463
1641
-33
-1578
-1366
422
1669
944
-855
-1747
-636
1352
1774
178
-1547
-1542
296
1835
1160
-733
-1810
-889
1140
1828
287
-1630
-1798
79
1778
1297
-649
-1794
-907
1084
1782
407
-1333
-1649
-61
1739
1456
-448
-1757
-1055
961
1838
530
-1304
-1652
-77
1687
1578
-215
-1687
-1208
783
1899
642
-1343
-1962
-388
1653
1643
-305
-1897
-1331
808
1901
799
-1087
-1715
-353
1546
1580
-228
-1770
-1405
611
1920
940
-1046
-1740
-416
1426
1537
-45
-1541
-1372
465
1791
984
-823
-1692
-558
1258
1571
40
-1575
-1522
196
1617
1056
-730
-1754
-850
1176
1778
262
-1491
-1577
203
1823
1338
-678
-1950
-1010
1101
1834
479
-1466
-1844
-50
1872
1399
-647
-1871
-1004
1114
1852
428
-1387
-1725
-21
1625
1250
-563
-1859
-1097
974
1766
412
-1381
-1651
-124
1534
1385
-336
-1699
-1182
803
1757
678
-1081
-1772
-483
1377
1479
-103
-1552
-1318
420
1706
989
-866
-1718
-482
1442
1694
22
-1630
-1522
352
1804
1044
-931
-1886
-723
1321
1749
79
-1773
-1660
483
2138
1220
-966
-1940
-641
1523
1871
138
-1642
-1549
359
1841
1133
-877
-1898
-766
1279
1696
95
-1515
-1347
430
1715
1075
-616
-1573
-777
988
1592
314
-1291
-1507
6
1661
1401
-427
-1777
-1115
853
1763
707
-1125
-1841
-361
1656
1687
-240
-1778
-1271
828
1963
814
-1210
-1899
-280
1745
1655
-302
-1808
-1304
743
1992
907
-1254
-1934
-311
1660
1622
-257
-1846
-1439
586
1767
794
-1046
-1740
-584
1347
1659
-20
-1734
-1434
699
1975
880
-992
-1649
-468
1348
1550
-44
-1561
-1383
331
1685
1057
-728
-1814
-846
1195
1728
179
-1349
-1394
102
1538
1225
-488
-1703
-888
999
1850
565
-1389
-1771
-75
1844
1426
-663
-1880
-1002
1112
1993
673
-1432
-1956
-191
1760
1447
-528
-1879
-1149
1007
1982
739
-1392
-1868
-77
1707
1490
-280
-1767
-1250
853
1884
587
-1351
-1810
-191
1586
1587
-348
-1869
-1351
665
1639
506
-1002
-1516
-435
1470
1737
51
-1656
-1454
459
1671
879
-906
-1824
-598
1499
1733
58
-1657
-1446
327
1684
1114
-772
-1879
-676
1349
1746
36
-1530
-1475
382
1896
1237
-709
-1747
-853
1082
1720
397
-1369
-1712
84
2048
1447
-748
-1944
-974
1079
1674
424
-1328
-1556
-16
1706
1371
-399
-1714
-1145
920
1910
622
-1349
-1720
73
1677
1401
-411
-1719
-1228
682
1833
719
-1094
-1750
-300
1616
1681
-292
-1926
-1311
791
1798
557
-1139
-1492
-193
1509
1621
-37
-1734
-1297
709
1968
902
-1142
-1732
-357
1494
1564
-134
-1648
-1339
612
1734
935
-965
-1926
-735
1346
1647
-19
-1668
-1463
518
1816
984
-841
-1680
-531
1210
1622
66
-1449
-1555
155
1860
1320
-665
-1852
-901
1088
1621
184
-1414
-1513
-38
1578
1276
-378
-1623
-1037
995
1765
684
-1219
-1728
-64
1689
1363
-523
-1733
-1070
849
1818
692
-1186
-1682
-256
1519
1617
-316
-1986
-1500
705
2030
959
-1090
-1703
-413
1420
1613
-239
-1884
-1507
661
2078
1005
-1073
-1903
-582
1537
1563
-192
-1871
-1623
665
2143
1090
-1222
-1980
-408
1451
1378
-156
-1585
-1317
513
1981
1246
-1065
-2003
-457
1494
1583
-164
-1534
-1110
576
1838
1117
-789
-1850
-977
1196
1710
-52
-1535
-1304
404
1695
1113
-492
-1662
-1172
747
1791
661
-1176
-1555
105
1601
1189
-418
-1817
-1274
807
1887
859
-1176
-1792
-171
1505
1308
-438
-1738
-1311
658
2034
1042
-1078
-1807
-495
1600
1803
-205
-1903
-1621
685
2262
1187
-1119
-2013
-411
1627
1550
-265
-1924
-1477
854
2186
935
-1246
-1853
-228
1640
1467
-322
-1681
-1271
676
2019
1036
-1121
-2008
-590
1364
1594
-109
-1452
-1133
573
1838
1110
-849
-1942
-805
1180
1514
20
-1424
-1397
105
1668
1388
-516
-1876
-1132
1061
1825
351
-1338
-1429
264
1828
1445
-545
-1908
-1108
1035
1764
410
-1396
-1746
-49
1687
1470
-432
-2077
-1382
906
1911
503
-1399
-1497
109
1664
1389
-494
-1669
-1094
831
1751
519
-1209
-1617
-80
1709
1315
-655
-2042
-1405
692
1832
919
-902
-1641
-492
1151
1350
72
-1487
-1425
374
1892
1221
-822
-1797
-564
1289
1595
-218
-1671
-1382
470
1912
1218
-718
-1807
-807
1236
1753
212
-1697
-1802
315
2078
1299
-870
-1977
-840
1300
1976
299
-1859
-1921
259
2296
1625
-645
-1994
-973
1141
1998
509
-1431
-1907
-229
1655
1423
-586
-1894
-1105
966
1574
164
-1415
-1497
193
1669
1441
-338
-1429
-895
804
1695
571
-1383
-1958
-177
2003
1664
-444
-2007
-1562
547
1839
819
-1286
-2177
-275
2138
2082
-210
-1974
-1426
658
1780
828
-944
-1676
-564
1370
1767
-81
-1794
-1589
377
1725
887
-814
-1662
-663
1433
1915
103
-1790
-1560
539
1847
905
-936
-1809
-645
1265
1862
339
-1594
-1771
159
1874
1170
-738
-1771
-656
1483
2028
339
-1711
-1824
110
1784
1143
-747
-1824
-844
1161
1962
534
-1510
-1920
-229
1615
1347
-465
-1534
-704
1225
1842
486
-1242
-1717
-311
1474
1277
-453
-1639
-986
688
1583
556
-1287
-1946
-580
1573
1789
-99
-1742
-1135
893
1944
818
-1022
-1819
-693
1223
1616
113
-1649
-1581
426
1863
942
-1141
-2040
-783
1323
1720
181
-1484
-1221
681
1863
774
-1127
-1779
-581
1219
1592
63
-1525
-1405
423
1770
931
-995
-1924
-876
1185
1834
423
-1325
-1543
126
1733
1258
-573
-1733
-1111
726
1708
708
-1081
-1566
12
1522
1105
-670
-1690
-967
745
1555
701
-817
-1406
-147
1466
1302
-526
-1823
-1105
908
1770
550
-1248
-1658
-251
1427
1254
-572
-1867
-1211
848
1937
854
-981
-1681
-283
1629
1746
-185
-1974
-1580
677
1957
844
-1163
-1887
-597
1321
1628
-50
-1862
-1692
481
2156
1447
-574
-1677
-673
1191
1670
188
-1490
-1555
150
1738
1253
-645
-1818
-922
1053
1698
226
-1535
-1536
331
1967
1373
-498
-1629
-791
1043
1542
167
-1515
-1571
251
1925
1384
-611
-1780
-826
1124
1560
26
-1630
-1562
350
2003
1404
-527
-1767
-1002
1040
1909
523
-1404
-1801
-239
1589
1400
-462
-1693
-971
903
1788
661
-1237
-1846
-521
1478
1726
223
-1290
-1224
377
1504
791
-1081
-2046
-745
1533
1864
45
-1647
-1442
345
1543
784
-992
-1738
-576
1358
1714
202
-1428
-1475
334
1874
1260
-759
-1913
-1006
1055
1692
334
-1422
-1670
31
1548
1022
-844
-1873
-797
1304
1955
547
-1148
-1444
131
1818
1463
-520
-1975
-1217
946
1852
378
-1587
-1741
194
1997
1242
-950
-2138
-1083
1264
2188
677
-1395
-1602
269
1997
1457
-656
-2013
-1255
947
2076
722
-1484
-2017
-203
1886
1662
-634
-2338
-1608
940
2223
934
-1092
-1651
-192
1702
1751
-145
-1858
-1667
362
1790
974
-1039
-1933
-651
1359
1749
168
-1545
-1493
349
1736
986
-810
-1562
-290
1610
1704
-67
-1712
-1585
133
1403
868
-675
-1554
-577
1393
1743
14
-1761
-1514
454
1694
936
-729
-1488
-495
1501
2064
396
-1532
-1746
55
1627
971
-875
-1674
-656
1223
1779
431
-1330
-1767
-307
1485
1414
-371
-1685
-1024
1113
2219
1123
-979
-1777
-428
1383
1307
-554
-1966
-1323
838
1961
882
-1020
-1847
-647
1256
1444
-187
-1593
-1063
998
2139
1128
-769
-1637
-582
1191
1407
-244
-1815
-1699
310
1869
1222
-822
-1874
-706
1328
1516
-265
-1860
-1511
626
2181
1341
-659
-1655
-720
1106
1482
-8
-1646
-1675
53
1647
1274
-655
-1850
-865
1242
1892
341
-1607
-1875
-9
1904
1584
-422
-1658
-750
1306
1873
276
-1634
-1906
-91
1692
1304
-538
-1714
-891
1070
1835
465
-1375
-1713
-79
1594
1334
-444
-1640
-864
1223
2122
696
-1449
-1970
-325
1527
1249
-609
-1895
-1182
943
2008
727
-1340
-1858
-189
1760
1552
-456
-1901
-1236
944
2144
1036
-989
-1828
-716
1089
1372
-88
-1638
-1520
372
1764
1096
-691
-1593
-571
1264
1547
99
-1432
-1345
448
1852
1125
-788
-1627
-505
1326
1612
86
-1590
-1580
143
1618
1154
-678
-1874
-1007
1166
1961
526
-1290
-1535
79
1680
1335
-424
-1644
-981
971
1956
795
-1312
-1995
-417
1599
1475
-394
-1785
-1089
1004
1962
715
-1219
-1676
-154
1609
1379
-440
-1766
-1139
946
2043
939
-1033
-1810
-479
1488
1605
-198
-1862
-1583
638
2118
1193
-902
-1946
-807
1356
1969
290
-1661
-1737
208
1868
1224
-749
-1741
-515
1507
1760
1
-1784
-1684
195
1679
974
-901
-1790
-614
1402
1804
215
-1541
-1552
229
1635
1017
-737
-1664
-694
1274
1829
349
-1492
-1728
-68
1617
1195
-721
-1811
-820
1267
1881
368
-1356
-1430
337
1914
1252
-770
-1916
-1010
1038
1819
484
-1231
-1467
58
1574
1169
-689
-1888
-1122
906
1852
715
-1061
-1469
73
1767
1478
-434
-1845
-1325
616
1654
708
-992
-1560
-198
1536
1418
-362
-1828
-1441
469
1653
883
-719
-1462
-397
1410
1674
36
-1612
-1495
282
1519
808
-843
-1718
-662
1257
1728
281
-1370
-1483
126
1485
952
-776
-1737
-738
1259
1815
359
-1356
-1517
182
1714
1202
-692
-1855
-1023
973
1800
575
-1177
-1509
105
1706
1222
-683
-1851
-1031
901
1688
496
-1207
-1504
99
1736
1387
-479
-1833
-1211
829
1888
732
-1173
-1683
-64
1881
1693
-319
-1901
-1354
739
1883
803
-1218
-1922
-479
1614
1753
-118
-1783
-1355
731
1869
756
-1182
-1821
-352
1649
1837
6
-1714
-1384
603
1766
682
-1278
-1962
-493
1609
1800
-17
-1654
-1370
525
1770
841
-1116
-1958
-666
1427
1810
208
-1461
-1432
422
1891
1123
-924
-1975
-799
1293
1777
175
-1600
-1668
159
1813
1304
-683
-1835
-935
1098
1740
346
-1406
-1591
135
1789
1351
-565
-1738
-919
1030
1682
277
-1456
-1643
-3
1715
1436
-418
-1779
-1125
922
1852
581
-1327
-1817
-263
1598
1532
-182
-1582
-1105
787
1719
595
-1247
-1783
-341
1473
1479
-201
-1579
-1188
617
1692
783
-1012
-1781
-516
1404
1581
-27
-1536
-1352
453
1795
1011
-959
-1963
-794
1238
1695
116
-1591
-1510
325
1734
1042
-807
-1799
-816
1117
1690
291
-1485
-1569
269
1773
1200
-701
-1795
-869
1159
1764
255
-1550
-1682
98
1764
1333
-569
-1806
-978
1132
1956
583
-1344
-1719
-42
1785
1517
-426
-1854
-1125
1005
1905
584
-1281
-1717
-214
1580
1502
-344
-1760
-1075
1021
1966
640
-1299
-1761
-184
1666
1583
-261
-1790
-1367
715
1939
829
-1164
-1870
-433
1537
1618
-234
-1838
-1464
596
1995
1053
-1012
-1885
-547
1499
1718
-51
-1719
-1508
472
1899
1067
-917
-1885
-754
1251
1709
114
-1674
-1678
285
1872
1230
-764
-1840
-826
1230
1750
181
-1514
-1496
303
1728
1069
-797
-1775
-816
1103
1730
286
-1473
-1640
61
1719
1289
-567
-1777
-901
1133
1892
537
-1350
-1688
-9
1709
1390
-524
-1824
-1106
922
1916
665
-1300
-1823
-166
1722
1518
-342
-1748
-1181
864
1955
816
-1137
-1783
-357
1612
1761
-53
-1728
-1467
499
1782
806
-1092
-1799
-489
1398
1592
-35
-1649
-1426
518
1823
897
-987
-1867
-687
1344
1677
19
-1609
-1485
365
1771
978
-994
-1981
-809
1321
1806
151
-1588
-1552
276
1826
1194
-758
-1870
-930
1147
1774
340
-1435
-1612
158
1755
1241
-668
-1828
-987
1084
1837
463
-1342
-1661
-49
1724
1471
-456
-1816
-1086
989
1813
506
-1296
-1607
29
1745
1427
-375
-1727
-1201
752
1777
695
-1190
-1753
-262
1701
1653
-240
-1728
-1191
873
1988
851
-1167
-1856
-415
1557
1679
-107
-1819
-1503
571
1906
983
-996
-1842
-529
1511
1806
91
-1632
-1477
461
1911
1100
-910
-1869
-685
1348
1753
77
-1589
-1466
334
1764
1080
-822
-1826
-806
1210
1744
222
-1520
-1617
186
1850
1289
-631
-1744
-886
1046
1715
350
-1409
-1646
-22
1619
1274
-561
-1836
-1069
1023
1922
614
-1290
-1757
-177
1696
1558
-351
-1821
-1182
905
1957
718
-1232
-1744
-216
1633
1564
-227
-1746
-1345
706
1937
830
-1190
-1818
-302
1560
1551
-194
-1634
-1235
657
1818
903
-1011
-1834
-566
1462
1735
-18
-1700
-1468
524
1852
894
-1111
-1914
-625
1431
1729
5
-1670
-1488
413
1806
1005
-995
-1958
-798
1330
1821
126
-1701
-1591
302
1816
1176
-765
-1842
-817
1215
1792
329
-1434
-1587
114
1702
1252
-648
-1862
-1033
1022
1831
460
-1381
-1658
23
1737
1358
-459
-1703
-1028
918
1829
638
-1178
-1698
-221
1669
1605
-199
-1682
-1214
762
1891
794
-1183
-1833
-343
1593
1647
-122
-1647
-1306
646
1898
962
-996
-1752
-367
1631
1758
-26
-1710
-1492
575
2044
1051
-1049
-1891
-570
1476
1749
53
-1593
-1393
445
1872
1208
-806
-1904
-740
1388
1798
137
-1643
-1524
405
1917
1166
-844
-1816
-680
1355
1776
193
-1547
-1569
231
1811
1313
-656
-1868
-966
1120
1849
384
-1465
-1659
75
1728
1299
-547
-1815
-998
1130
1960
575
-1305
-1633
-42
1690
1456
-362
-1724
-1065
982
1958
678
-1255
-1717
-162
1641
1451
-331
-1704
-1050
962
1922
669
-1165
-1657
-231
1569
1532
-150
-1618
-1263
704
1984
944
-1068
-1804
-439
1538
1670
-108
-1732
-1428
547
1858
971
-971
-1830
-606
1414
1744
76
-1634
-1477
454
1845
1016
-893
-1802
-693
1265
1698
166
-1524
-1604
151
1731
1187
-766
-1835
-807
1170
1738
300
-1469
-1677
57
1732
1334
-584
-1811
-938
1114
1870
478
-1352
-1645
14
1715
1408
-449
-1748
-1081
886
1788
615
-1211
-1665
-137
1627
1488
-277
-1720
-1202
852
1923
722
-1228
-1750
-183
1711
1601
-255
-1735
-1206
869
1974
782
-1163
-1726
-264
1622
1636
-159
-1715
-1347
728
2037
1016
-990
-1785
-462
1502
1672
-44
-1651
-1367
630
1975
1014
-982
-1798
-522
1477
1775
102
-1563
-1416
439
1856
1137
-805
-1864
-755
1313
1760
197
-1509
-1561
261
1852
1298
-643
-1826
-888
1215
1871
421
-1368
-1633
97
1797
1402
-554
-1820
-968
1117
1848
443
-1336
-1632
-41
1628
1383
-399
-1683
-1046
946
1898
651
-1217
-1611
-53
1693
1471
-326
-1662
-1124
888
1953
807
-1119
-1690
-272
1590
1615
-116
-1577
-1191
752
1929
958
-969
-1748
-418
1546
1747
-22
-1691
-1421
607
1952
1026
-953
-1797
-532
1500
1788
73
-1642
-1470
493
1915
1153
-837
-1803
-634
1377
1752
129
-1594
-1574
306
1856
1182
-769
-1853
-811
1248
1809
238
-1580
-1643
250
1875
1262
-698
-1815
-915
1098
1818
416
-1356
-1594
39
1649
1368
-398
-1746
-1087
941
1895
629
-1225
-1656
-70
1675
1472
-274
-1630
-1081
862
1830
666
-1150
-1666
-205
1658
1617
-221
-1731
-1225
793
1898
811
-1108
-1754
-353
1544
1640
-88
-1616
-1246
689
1893
962
-941
-1758
-512
1470
1751
111
-1598
-1472
446
1854
1039
-905
-1839
-698
1331
1777
182
-1574
-1498
425
1884
1155
-802
-1819
-689
1335
1721
171
-1529
-1538
239
1714
1148
-710
-1843
-882
1218
1843
352
-1463
-1653
95
1755
1325
-588
-1851
-1004
1089
1905
443
-1465
-1685
40
1786
1443
-456
-1736
-1080
944
1892
667
-1273
-1843
-288
1648
1538
-333
-1783
-1211
852
1911
756
-1124
-1683
-253
1548
1508
-202
-1677
-1261
727
1937
925
-1062
-1825
-447
1530
1681
-14
-1636
-1421
532
1889
981
-969
-1840
-615
1387
1738
93
-1661
-1596
405
1936
1044
-982
-1885
-614
1453
1796
150
-1610
-1613
291
1869
1097
-944
-1970
-878
1199
1776
238
-1617
-1777
73
1768
1259
-769
-1942
-973
1074
1798
412
-1476
-1770
-60
1689
1302
-613
-1864
-1077
989
1813
482
-1412
-1768
-114
1614
1303
-498
-1731
-1167
771
1808
727
-1158
-1721
-238
1605
1565
-287
-1819
-1277
887
2109
893
-1231
-1848
-322
1552
1499
-281
-1684
-1203
691
1780
779
-1020
-1785
-622
1342
1765
209
-1559
-1518
471
1941
1103
-1006
-2001
-695
1499
1797
-1
-1741
-1418
542
1762
923
-796
-1678
-838
1021
1662
257
-1546
-1736
47
1772
1347
-626
-1913
-1006
1147
1861
331
-1524
-1631
209
1811
1276
-657
-1848
-1058
889
1707
489
-1342
-1788
-206
1698
1559
-463
-1969
-1221
1021
1971
532
-1466
-1828
-56
1725
1347
-429
-1676
-1157
723
1764
820
-1097
-1853
-429
1647
1694
-285
-1893
-1375
812
2017
769
-1292
-1821
-317
1526
1520
-96
-1570
-1350
520
1892
1102
-854
-1745
-538
1484
1859
111
-1759
-1601
492
1940
1056
-976
-1855
-643
1295
1642
146
-1500
-1543
228
1764
1236
-710
-1925
-1024
1170
1929
277
-1685
-1686
285
1836
1159
-828
-1920
-921
1122
1719
292
-1428
-1682
-142
1466
1210
-619
-1935
-1206
933
1880
579
-1338
-1781
-185
1690
1477
-496
-1885
-1196
866
1865
693
-1262
-1906
-394
1597
1624
-253
-1819
-1318
771
1953
829
-1215
-1847
-401
1499
1573
-124
-1648
-1354
532
1816
975
-967
-1844
-545
1490
1785
101
-1669
-1491
568
1909
948
-1036
-1847
-612
1289
1637
149
-1491
-1450
352
1783
1077
-810
-1825
-804
1293
1846
272
-1594
-1642
225
1809
1234
-658
-1808
-865
1214
1864
305
-1569
-1717
82
1792
1326
-575
-1801
-1050
927
1742
462
-1367
-1770
-99
1763
1536
-448
-1819
-1141
964
1895
502
-1446
-1741
-95
1580
1350
-447
-1779
-1263
745
1808
731
-1211
-1841
-397
1530
1624
-180
-1809
-1354
758
1903
816
-1173
-1853
-437
1584
1727
-22
-1714
-1404
588
1831
972
-910
-1815
-605
1437
1678
-12
-1670
-1450
478
1934
1134
-782
-1757
-665
1293
1666
153
-1558
-1557
322
1885
1208
-756
-1844
-791
1215
1800
271
-1535
-1689
124
1767
1245
-671
-1859
-1011
1074
1847
379
-1474
-1655
46
1691
1331
-511
-1810
-1101
969
1838
513
-1365
-1783
-158
1687
1451
-470
-1941
-1325
830
1938
638
-1298
-1792
-255
1604
1489
-376
-1792
-1238
816
1925
803
-1140
-1868
-483
1533
1732
-178
-1793
-1386
671
1938
784
-1249
-1967
-552
1499
1733
41
-1633
-1505
390
1839
1065
-931
-1842
-637
1432
1795
134
-1586
-1587
282
1906
1242
-784
-1912
-871
1261
1834
249
-1643
-1666
235
1856
1236
-756
-1840
-855
1142
1784
363
-1378
-1602
83
1736
1320
-593
-1867
-1005
1046
1848
447
-1426
-1729
-73
1677
1379
-518
-1813
-1134
902
1879
587
-1335
-1797
-145
1676
1496
-359
-1773
-1216
777
1848
723
-1191
-1735
-317
1568
1619
-151
-1732
-1384
681
1912
852
-1152
-1883
-445
1565
1678
-147
-1739
-1319
670
1948
948
-1046
-1832
-502
1532
1788
103
-1606
-1482
428
1925
1164
-935
-1898
-635
1401
1815
100
-1682
-1631
280
1850
1166
-759
-1790
-779
1267
1772
230
-1524
-1599
188
1775
1268
-609
-1732
-879
1103
1783
414
-1407
-1761
-153
1634
1367
-559
-1952
-1150
1034
1892
457
-1441
-1737
-147
1617
1434
-381
-1766
-1186
831
1830
612
-1273
-1745
-200
1567
1493
-266
-1722
-1227
702
1764
724
-1186
-1867
-442
1523
1609
-178
-1727
-1286
719
1894
909
-1088
-1836
-412
1527
1685
-28
-1670
-1459
459
1804
988
-867
-1716
-581
1326
1735
243
-1490
-1533
279
1802
1116
-902
-1902
-792
1329
1842
246
-1500
-1464
317
1759
1234
-601
-1749
-843
1113
1782
312
-1545
-1730
80
1805
1298
-680
-1888
-929
1159
1843
407
-1419
-1705
19
1720
1360
-571
-1880
-1094
982
1862
552
-1275
-1732
-131
1739
1553
-359
-1780
-1118
874
1700
471
-1316
-1748
-246
1587
1493
-328
-1683
-1124
847
1908
812
-993
-1597
-369
1323
1408
-123
-1530
-1273
446
1671
906
-919
-1638
-373
1503
1698
120
-1414
-1384
312
1694
1105
-675
-1716
-770
1114
1621
225
-1303
-1275
444
1909
1359
-547
-1795
-981
1078
1873
457
-1410
-1618
104
1752
1340
-462
-1580
-766
1272
2003
542
-1435
-1791
-74
1756
1454
-516
-1921
-1170
1013
2022
781
-1190
-1655
3
1854
1525
-465
-1832
-1184
894
1907
648
-1396
-1970
-279
1761
1725
-146
-1712
-1179
958
1993
779
-1161
-1770
-360
1487
1550
-220
-1722
-1237
854
2119
1107
-863
-1635
-375
1529
1682
-6
-1599
-1367
480
1761
935
-996
-1813
-481
1607
1936
270
-1422
-1334
486
1854
1130
-775
-1734
-699
1173
1683
292
-1430
-1467
453
2045
1410
-596
-1793
-839
1179
1753
257
-1477
-1715
-8
1673
1321
-508
-1675
-801
1243
2050
665
-1354
-1806
-95
1762
1498
-501
-1911
-1146
922
1842
645
-1152
-1527
15
1729
1478
-383
-1844
-1327
727
1928
790
-1278
-1886
-290
1689
1745
-26
-1537
-1115
794
1849
741
-1192
-1853
-411
1514
1604
-167
-1781
-1421
682
2020
1079
-861
-1760
-647
1249
1600
39
-1596
-1489
367
1829
1161
-752
-1684
-475
1573
1900
135
-1670
-1609
313
1776
1069
-796
-1826
-793
1255
1898
446
-1370
-1559
143
1763
1272
-646
-1813
-892
1146
1862
520
-1227
-1499
182
1810
1342
-622
-1935
-1156
988
1911
559
-1382
-1794
-94
1804
1597
-346
-1882
-1319
705
1711
541
-1311
-1813
-338
1571
1605
-72
-1517
-1099
764
1736
591
-1344
-1943
-513
1384
1430
-278
-1680
-1178
884
2095
947
-1217
-2086
-629
1525
1729
-194
-2011
-1722
493
2158
1369
-641
-1640
-674
1174
1607
179
-1526
-1651
54
1572
1108
-625
-1578
-557
1310
1631
53
-1468
-1333
378
1619
840
-1046
-1897
-698
1379
1933
363
-1562
-1767
178
1955
1418
-674
-2058
-1207
1027
1920
566
-1296
-1702
-179
1559
1393
-326
-1669
-1124
746
1658
555
-1167
-1537
-75
1541
1258
-493
-1770
-1050
942
1782
526
-1329
-1734
-83
1838
1649
-431
-2117
-1554
729
2056
899
-1230
-1950
-410
1651
1788
43
-1734
-1639
297
1725
934
-989
-1919
-699
1419
1827
171
-1448
-1355
383
1674
916
-976
-1858
-726
1172
1655
240
-1435
-1385
498
1889
1089
-915
-1920
-799
1292
1721
117
-1600
-1558
382
2091
1441
-675
-1947
-1063
1143
2029
559
-1493
-1835
-73
1803
1542
-377
-1769
-1071
918
1796
607
-1245
-1729
-179
1541
1344
-389
-1700
-1079
952
1820
485
-1364
-1790
-152
1701
1488
-416
-1827
-1248
779
1887
743
-1284
-1944
-433
1565
1664
-151
-1838
-1537
515
1879
926
-1091
-1868
-541
1394
1581
-88
-1663
-1458
451
1792
933
-1018
-1843
-564
1439
1671
-77
-1682
-1462
421
1733
980
-884
-1865
-794
1172
1678
184
-1538
-1575
299
1898
1232
-788
-1953
-996
1119
1830
306
-1580
-1725
99
1810
1353
-608
-1781
-923
1029
1674
258
-1537
-1779
-42
1705
1447
-393
-1730
-1120
877
1859
649
-1292
-1884
-405
1476
1422
-354
-1751
-1173
882
1905
671
-1305
-1833
-286
1616
1490
-425
-1863
-1350
720
1920
841
-1073
-1813
-447
1483
1627
-107
-1772
-1448
508
1816
942
-1004
-1820
-584
1381
1664
43
-1603
-1536
297
1719
972
-946
-1862
-683
1340
1768
64
-1674
-1579
344
1806
1108
-813
-1820
-736
1293
1764
142
-1623
-1683
162
1826
1244
-726
-1865
-920
1147
1884
472
-1426
-1735
-102
1615
1365
-467
-1819
-1074
984
1848
567
-1294
-1692
-88
1677
1350
-522
-1828
-1171
905
1869
623
-1270
-1736
-234
1546
1477
-358
-1880
-1368
678
1801
698
-1245
-1856
-353
1607
1612
-214
-1824
-1448
605
1891
905
-1131
-1976
-643
1351
1596
-37
-1670
-1550
417
1858
974
-1025
-1889
-638
1293
1529
-98
-1677
-1451
437
1819
1081
-899
-1923
-805
1281
1838
262
-1599
-1697
180
1865
1246
-764
-1911
-868
1209
1775
249
-1523
-1572
182
1717
1187
-706
-1832
-923
1132
1960
582
-1509
-1960
-61
1965
1515
-722
-2166
-1225
1240
2175
569
-1492
-1745
-111
1476
1308
-259
-1629
-1390
387
1739
1033
-953
-1948
-608
1634
1788
-416
-2106
-1278
1054
1823
262
-1449
-1478
19
1380
1145
-218
-1390
-1363
176
1730
1386
-791
-2360
-1141
1582
2279
65
-2166
-1767
813
2286
847
-1414
-1865
-250
1376
1156
-305
-1327
-1031
346
1449
1080
-414
-1555
-1055
725
1706
590
-1479
-2022
-86
2129
1747
-698
-2262
-1065
1473
2173
206
-1856
-1715
391
1902
1028
-846
-1674
-732
999
1601
588
-998
-1484
-210
1384
1355
-204
-1658
-1406
646
2112
1072
-1224
-2034
-198
1964
1790
-358
-2126
-1505
952
2200
726
-1430
-1847
-102
1713
1398
-285
-1496
-982
715
1488
547
-941
-1503
-565
1027
1478
194
-1466
-1559
383
2032
1342
-896
-2218
-956
1493
2062
0
-2099
-1743
657
2069
855
-1055
-1636
-422
1249
1401
-1
-1400
-1344
157
1414
983
-625
-1684
-916
1128
2038
663
-1386
-1888
-115
1916
1584
-687
-2185
-1116
1257
2026
348
-1482
-1486
335
1827
1161
-699
-1698
-880
855
1477
419
-1144
-1575
-254
1635
1772
-80
-1841
-1453
735
1973
757
-1424
-2105
-393
1778
1684
-374
-1755
-1033
909
1678
494
-1186
-1647
-438
1197
1390
-82
-1584
-1357
563
2033
1192
-984
-2031
-691
1498
1772
-147
-1908
-1599
475
1855
1040
-819
-1694
-654
1171
1651
240
-1517
-1710
64
1796
1263
-777
-1912
-793
1333
1889
222
-1599
-1593
300
1794
1077
-784
-1824
-922
1006
1738
464
-1321
-1637
15
1734
1416
-510
-1931
-1179
971
1887
533
-1416
-1746
53
1913
1552
-464
-1804
-1069
974
1863
576
-1320
-1776
-212
1653
1574
-241
-1704
-1122
898
1971
828
-1207
-1942
-449
1607
1702
-122
-1748
-1321
757
1992
895
-1114
-1860
-507
1424
1567
-141
-1719
-1415
594
1889
915
-1059
-1863
-588
1334
1608
-59
-1759
-1617
364
1959
1250
-830
-2029
-953
1250
1867
173
-1686
-1657
220
1769
1199
-658
-1740
-892
986
1601
281
-1464
-1733
3
1700
1229
-712
-1800
-791
1255
1795
168
-1513
-1556
86
1593
1261
-452
-1783
-1132
913
1965
794
-1355
-2028
-278
1811
1523
-588
-1922
-1233
773
1793
756
-1062
-1721
-505
1334
1613
-111
-1885
-1589
662
2016
900
-1174
-1822
-251
1672
1391
-444
-1703
-1215
477
1568
892
-856
-1735
-588
1474
1835
-53
-2015
-1688
624
2014
885
-1126
-1789
-498
1411
1757
229
-1452
-1590
19
1615
1317
-681
-2096
-1076
1180
1809
209
-1558
-1506
295
1651
975
-741
-1679
-884
878
1594
418
-1380
-1738
7
1914
1521
-622
-2081
-1164
1207
1996
340
-1642
-1809
-121
1626
1410
-328
-1618
-1050
723
1661
707
-1046
-1802
-526
1470
1594
-360
-1859
-1154
1070
2089
761
-1273
-1811
-180
1729
1468
-432
-1795
-1321
590
1798
926
-912
-1711
-450
1500
1713
4
-1686
-1592
322
1765
969
-1026
-1882
-587
1542
1881
150
-1593
-1588
303
1841
1019
-1116
-2093
-842
1306
1820
190
-1515
-1532
234
2022
1296
-999
-2080
-852
1131
1530
206
-1405
-1550
98
1700
1437
-403
-1685
-903
878
1488
396
-1339
-1838
-177
1771
1475
-546
-1859
-1098
975
1938
690
-1211
-1924
-504
1733
1811
-375
-2113
-1325
895
1849
682
-1200
-1754
-215
1683
1649
-241
-1964
-1437
762
1832
551
-1287
-1698
-426
1484
1744
-112
-1766
-1330
697
2089
990
-1378
-2108
-401
1622
1606
-99
-1666
-1520
522
1975
1028
-990
-1914
-718
1407
1763
-102
-1733
-1405
508
1770
1073
-748
-1930
-981
1185
1719
233
-1495
-1539
329
2036
1309
-906
-1902
-733
1169
1576
122
-1520
-1751
0
1666
1284
-480
-1745
-947
1177
2012
384
-1564
-1670
145
1644
1126
-567
-1742
-1147
896
1883
731
-1252
-1865
-183
1872
1770
-399
-1978
-1134
960
1693
484
