0,0
770,933
810,890
723,896
760,888
809,927
737,908
748,885
765,941
738,896
763,902
756,929
762,911
773,887
775,904
744,915
791,902
763,942
757,877
780,884
739,929
750,884
793,929
736,885
745,872
795,922
785,892
769,898
754,875
772,914
733,916
763,877
778,909
731,898
788,894
748,968
733,889
784,900
753,947
748,872
814,901
732,914
750,895
807,925
727,915
752,874
784,895
742,902
817,917
775,952
757,879
771,884
752,911
759,894
767,886
761,926
758,881
776,875
774,940
759,881
748,947
766,909
752,906
777,904
768,883
767,935
746,870
784,927
763,906
747,888
780,913
736,896
795,890
776,929
733,891
785,900
736,922
758,903
769,910
770,909
770,899
748,920
791,917
750,919
747,877
786,923
755,922
768,884
762,928
747,903
779,902
790,938
757,890
767,912
766,935
784,883
768,927
781,880
784,928
792,894
762,933
773,899
731,885
789,887
769,937
740,881
823,896
751,949
750,883
783,884
743,956
742,867
793,932
739,911
776,917
759,907
769,920
759,940
730,879
791,921
773,948
738,898
812,947
741,917
785,915
788,942
784,944
812,891
767,948
759,910
805,904
784,922
770,891
760,900
786,969
734,890
797,884
753,971
754,891
827,906
746,958
757,918
812,943
763,960
763,871
811,942
749,947
780,893
789,927
770,924
799,919
788,944
745,914
780,914
751,936
769,907
792,911
768,945
767,887
771,946
749,906
786,887
754,970
745,898
799,934
776,928
747,937
807,930
767,934
795,910
776,928
760,945
804,903
790,930
762,913
768,918
777,937
776,874
785,901
772,929
780,901
783,952
781,910
757,914
737,932
772,903
787,943
759,908
774,913
751,904
774,935
790,924
742,936
777,902
770,953
758,906
797,904
755,941
767,905
784,935
817,950
774,896
779,950
760,889
775,917
779,901
797,926
769,915
779,885
803,951
740,885
777,894
734,878
753,886
781,904
714,928
763,930
737,887
758,901
776,905
746,877
762,888
759,933
741,886
777,879
749,918
749,903
785,898
741,882
746,902
773,895
736,898
768,906
754,912
766,885
749,875
731,912
748,881
727,906
760,906
790,868
761,891
727,900
766,870
749,899
768,874
747,887
749,895
746,884
792,893
726,892
750,876
741,874
754,884
772,882
759,903
733,871
794,881
746,901
762,908
750,864
723,890
770,895
743,865
756,862
761,909
721,872
758,868
742,908
728,849
723,894
742,888
750,867
754,872
750,873
767,879
755,917
736,870
763,870
736,906
731,858
747,896
724,878
753,866
740,909
733,863
760,878
734,897
715,873
756,875
739,873
727,895
748,872
753,890
713,902
749,891
757,887
727,875
724,858
775,902
703,886
739,852
765,907
728,892
744,838
761,913
757,883
718,885
731,872
769,857
755,903
716,867
750,889
759,901
724,857
764,895
741,886
764,874
740,896
727,844
733,877
767,909
740,856
738,866
749,884
742,888
734,902
769,872
758,907
722,883
758,869
754,898
745,862
771,885
732,918
710,852
779,894
710,884
731,846
787,932
737,871
744,870
723,885
730,888
769,878
759,889
715,865
751,885
758,904
745,849
751,887
741,890
749,859
759,890
713,861
747,866
751,919
726,872
752,883
775,901
751,902
747,891
750,878
735,893
731,878
781,882
730,918
729,864
727,892
781,906
744,917
733,853
769,874
719,924
743,842
755,881
721,861
762,864
748,901
745,876
770,898
731,876
740,859
775,909
726,882
739,859
753,916
731,866
757,862
737,909
736,865
757,887
743,886
743,895
748,883
724,894
778,877
760,891
732,889
763,866
794,936
728,854
758,891
773,932
758,891
761,885
751,923
765,875
778,910
764,891
784,898
728,889
763,921
781,951
782,923
780,917
786,949
778,921
796,945
803,933
773,924
801,943
778,927
779,941
786,952
767,916
788,948
776,908
774,930
771,922
795,969
765,936
788,937
791,950
756,917
814,908
760,939
755,931
823,928
779,962
756,891
794,950
773,928
785,888
783,929
782,919
744,924
765,974
774,884
822,924
739,958
779,899
802,939
711,924
788,896
783,963
762,922
789,883
780,953
752,925
788,930
767,934
762,920
785,901
799,931
796,941
762,918
773,888
775,931
770,938
802,947
774,951
745,911
809,934
774,952
752,924
811,946
736,943
778,919
758,932
795,926
808,933
802,960
783,898
822,950
765,944
770,938
821,961
802,959
829,942
774,956
770,919
802,924
769,919
792,920
771,931
769,945
782,978
793,908
797,951
785,966
768,921
828,943
768,970
774,930
822,969
761,951
793,937
800,986
756,931
779,951
779,943
784,948
789,940
788,961
793,956
790,996
778,931
806,987
788,959
795,925
814,956
788,995
796,951
805,954
801,983
797,926
816,972
768,963
790,936
800,973
769,977
822,970
819,994
787,943
817,947
791,994
799,949
846,995
792,1015
798,954
837,985
774,946
789,992
799,1029
815,955
838,1014
826,1009
792,1004
795,985
807,1008
783,970
862,1012
791,1007
818,979
855,1014
812,1021
810,981
838,1028
813,982
867,1006
863,1039
830,989
846,1007
851,1029
851,1003
839,1056
828,991
840,1013
854,1030
861,1047
835,1003
895,1054
836,1041
840,1020
895,1072
848,1071
877,1047
895,1073
866,1056
882,1048
900,1083
898,1067
886,1079
881,1097
863,1053
896,1056
874,1107
862,1044
899,1065
857,1059
838,1012
881,1058
838,1021
850,974
834,970
840,992
773,966
792,934
793,939
792,941
785,948
796,909
790,918
735,929
763,897
778,925
738,891
755,876
760,944
721,894
800,896
757,952
732,879
791,916
740,903
754,884
772,915
752,891
773,892
759,894
726,894
781,883
755,914
714,845
781,877
718,912
728,845
780,888
736,909
726,862
779,913
705,883
754,866
722,855
745,872
733,893
729,852
783,831
701,913
718,849
778,885
710,865
716,878
718,895
727,859
760,883
720,863
712,863
757,898
747,890
713,870
713,890
746,884
720,847
757,859
754,912
715,861
758,865
731,884
762,851
768,908
728,880
769,877
741,937
725,858
780,885
751,915
771,897
766,904
774,910
755,913
761,905
760,889
773,912
755,895
766,893
785,914
766,881
773,913
786,936
780,882
791,922
787,938
794,890
799,902
783,868
806,918
823,909
772,932
800,893
790,959
780,915
825,923
790,915
773,934
803,942
802,938
813,886
814,952
796,942
823,918
829,942
808,964
821,964
797,936
808,967
803,912
866,953
805,946
817,912
863,971
811,941
848,930
855,1007
841,951
880,990
876,1022
911,974
891,1021
919,1041
974,1054
946,1119
937,1072
990,1088
1003,1160
994,1111
1053,1140
999,1180
1002,1149
1085,1167
1016,1190
1019,1129
1073,1183
1027,1158
1048,1137
1055,1182
1063,1156
1085,1171
1095,1185
1090,1195
1118,1232
1154,1288
1147,1289
1154,1386
1178,1392
1188,1408
1225,1464
1204,1492
1215,1461
1231,1511
1154,1472
1179,1452
1209,1481
1187,1470
1171,1462
1217,1530
1203,1511
1243,1553
1214,1558
1302,1659
1273,1659
1342,1695
1325,1760
1403,1826
1406,1876
1480,1919
1465,1990
1549,2072
1587,2150
1630,2247
1690,2339
1762,2446
1825,2545
1905,2641
1934,2730
2009,2833
2078,2956
2169,3099
2224,3216
2357,3371
2448,3549
2564,3705
2683,3896
2834,4116
2877,4262
3020,4452
3139,4641
3225,4753
3304,4897
3387,4997
3467,5182
3569,5301
3656,5415
3729,5574
3836,5653
3930,5845
3972,5964
4121,6080
4220,6298
4299,6467
4516,6685
4591,6970
4724,7099
4902,7354
4995,7575
5109,7710
5266,7894
5369,8148
5528,8351
5711,8607
5900,8934
6072,9246
6353,9600
6523,9997
6770,10270
6998,10653
7179,10981
7410,11373
7603,11701
7836,11998
8074,12340
8211,12668
3467,5182
8585,13210
8791,13484
8991,13791
9167,14135
9407,14495
9642,14905
9860,15197
10133,15611
10365,16010
10668,16447
11017,17023
11390,17620
11913,18385
12427,19277
13096,20261
13915,21494
14805,22898
15857,24562
17067,26396
18340,28362
19747,30453
21177,32618
22748,34971
24298,37362
25970,39755
27570,42276
29253,44711
30943,47243
32479,49517
33835,51410
35016,53125
35788,54362
36424,55240
36759,55715
36830,55786
36691,55653
36486,55338
36141,54803
35769,54151
35190,53349
34543,52355
33902,51388
33188,50363
32552,49390
31922,48469
31298,47551
30820,46857
30355,46205
30034,45696
29780,45303
29580,45065
29593,45036
29644,45175
29871,45484
30194,45957
30520,46526
30953,47136
31487,47870
32070,48751
32747,49683
33453,50799
34181,51796
34832,52738
35233,53331
35552,53749
35756,54128
35928,54327
36096,54629
36376,55044
36755,55604
37227,56319
37946,57370
38901,58852
40157,60641
41555,62687
42974,64775
44519,66554
46055,68765
47555,70870
49095,73036
50532,75371
52368,77850
54314,80545
56150,82934
58103,85477
60103,88262
62327,91243
64728,94449
66946,97784
69643,100821
72510,104103
75228,106875
76926,107930
77024,106425
74749,101422
72254,96793
72730,96404
73200,96580
73802,97106
74287,97521
74778,97901
75183,98296
75542,98593
75925,98926
76362,99269
76890,99655
77387,100056
77972,100516
78569,100946
79315,101517
80066,102104
80882,102672
81671,103301
82215,103825
83110,104460
83877,105046
84578,105481
85239,105932
85803,106302
86419,106752
87011,107127
87557,107472
87977,107767
88430,108066
88955,108390
89375,108723
89731,108945
90064,109106
90394,109399
90741,109609
91096,109823
91333,110010
91519,110085
91802,110269
91999,110401
92244,110531
92379,110619
92461,110645
92607,110746
92777,110847
92921,110940
93023,110955
93079,111035
93199,111049
93365,111180
93480,111213
93571,111261
93611,111286
93721,111328
93863,111434
93946,111476
94084,111527
94133,111580
94252,111616
94412,111734
94587,111816
94607,111853
94697,111863
94821,111926
95002,112064
95115,112073
95166,112113
95189,112098
95322,112141
95443,112277
95526,112281
95592,112327
95587,112348
95687,112371
95782,112467
95852,112468
95867,112481
95892,112450
95934,112512
96060,112604
96142,112581
96175,112620
96166,112585
96278,112661
96377,112768
96476,112762
96479,112785
96482,112740
96629,112815
96705,112915
96764,112886
96814,112921
96787,112923
96904,112963
96996,113003
97042,113033
97034,113010
97076,113009
97108,113067
97224,113134
97268,113100
97250,113096
97223,113067
97337,113105
97351,113179
97332,113117
97316,113083
97229,113075
97276,113057
97325,113128
97239,113027
97142,112975
97112,112934
97080,112959
97083,112952
96982,112902
96916,112821
96798,112798
96798,112756
96814,112799
96706,112751
96657,112647
96595,112665
96608,112651
96609,112708
96571,112670
96511,112617
96495,112573
96521,112614
96537,112638
96503,112587
96471,112573
96427,112549
96489,112579
96503,112645
96475,112579
96461,112559
96442,112559
96473,112540
96516,112635
96486,112556
96479,112526
96473,112527
96562,112572
96554,112632
96523,112593
96513,112531
96500,112575
96592,112601
96669,112662
96656,112621
96692,112640
96700,112688
96744,112671
96854,112778
96853,112758
96850,112693
96949,112786
96959,112821
97067,112824
97084,112852
97022,112806
97087,112838
97142,112889
97185,112889
97151,112870
97168,112856
97167,112888
97271,112916
97277,112971
97263,112891
97299,112945
97288,112927
97411,112978
97401,113012
97398,112997
97431,112944
97434,113004
97469,113024
97507,113032
97490,113006
97485,112948
97527,113014
97604,113087
97623,113062
97628,113075
97596,113032
97699,113077
97746,113169
97759,113136
97778,113135
97752,113114
97812,113140
97896,113222
97896,113163
97896,113178
97891,113152
97936,113204
98021,113250
98065,113296
98037,113235
98078,113269
98111,113300
98194,113317
98230,113372
98193,113300
98235,113321
98270,113386
97968,113365
97960,113409
97934,113382
97979,113344
98024,113435
98045,113434
98036,113431
98034,113369
98028,113409
98068,113431
98132,113452
98109,113487
98076,113351
98091,113412
98091,113438
98192,113448
98149,113431
98113,113401
98086,113363
98116,113402
98172,113472
98106,113408
98087,113377
98105,113385
98180,113443
98179,113468
98213,113415
98196,113428
98198,113400
98307,113448
98321,113556
98302,113467
98315,113475
98311,113481
98356,113528
98433,113577
98400,113514
98385,113507
98401,113493
98495,113586
98518,113619
98497,113597
98465,113524
98537,113552
98586,113628
98580,113617
98570,113564
98578,113579
98533,113551
98614,113618
98609,113631
98547,113555
98534,113520
98485,113501
98515,113537
98478,113553
98377,113443
98329,113410
98257,113411
98234,113392
98202,113394
98102,113285
97971,113247
97912,113192
97926,113234
97810,113165
97713,113106
97655,113038
97622,113019
97573,113066
97528,112998
97494,112934
97356,112931
97354,112880
97383,112935
97330,112917
97253,112856
97229,112802
97269,112840
97272,112902
97318,112845
97259,112845
97207,112771
97301,112858
97283,112889
97296,112823
97277,112838
97196,112779
97266,112833
97330,112909
97320,112857
97253,112817
97292,112817
97331,112849
97376,112914
97394,112893
97355,112886
97384,112839
97493,112934
97496,113007
97544,112965
97540,112959
97522,112935
97638,113006
97643,113065
97711,112990
97695,113016
97700,113010
97791,113077
97837,113140
97827,113112
97870,113089
97863,113138
97967,113151
98068,113221
98017,113231
98048,113172
98082,113221
98158,113296
98206,113339
98197,113294
98211,113243
98241,113283
98278,113303
98305,113339
98278,113325
98240,113276
98281,113308
98306,113334
98353,113355
98286,113328
98294,113300
98312,113307
98394,113339
98394,113376
98414,113356
98353,113320
98427,113348
98420,113408
98516,113438
98464,113396
98474,113360
98466,113363
98547,113454
98587,113451
98527,113425
98567,113403
98577,113415
98664,113470
98622,113467
98686,113472
98656,113441
98719,113477
98796,113540
98785,113556
98820,113522
98794,113542
98842,113521
98960,113626
98928,113624
98963,113609
98986,113599
99008,113648
99117,113716
99156,113731
99121,113716
99114,113628
99177,113750
99232,113743
99240,113782
99218,113710
99245,113704
99279,113757
99346,113784
99357,113840
99298,113773
99364,113762
99384,113835
99454,113847
99441,113844
99440,113809
99473,113810
99486,113901
99529,113883
99544,113950
99494,113835
99522,113838
99548,113887
99604,113886
99602,113963
99569,113862
99644,113902
99702,113940
99757,114000
99714,113978
99721,113943
99736,113939
99794,113976
99850,114034
99835,114019
99840,114009
99821,113951
99909,114046
99920,114104
99942,114025
99934,114045
99863,114002
99941,114054
99931,114096
99919,114006
99830,113959
99730,113866
99744,113917
99668,113919
99594,113840
99450,113766
99386,113691
99322,113694
99238,113693
99113,113577
99014,113476
98946,113483
98867,113452
98878,113422
98727,113390
98622,113249
98600,113286
98528,113293
98492,113218
98449,113200
98348,113126
98320,113135
98365,113191
98286,113119
98268,113111
98194,113062
98244,113055
98242,113112
98228,113075
98254,113077
98167,113060
98249,113042
98285,113114
98308,113109
98315,113116
98267,113097
98312,113100
98396,113179
98423,113208
98431,113155
98399,113149
98465,113205
98526,113255
98555,113235
98557,113233
98534,113207
98639,113237
98663,113346
98672,113306
98730,113317
98680,113315
98748,113300
98813,113394
98797,113349
98807,113339
98807,113312
98801,113374
98865,113398
98897,113415
98904,113372
98884,113388
98919,113376
98976,113449
98940,113457
98949,113381
98930,113437
98910,113394
98953,113421
98909,113437
98872,113351
98884,113368
98879,113364
98894,113394
98886,113417
98830,113333
98785,113303
98868,113393
98862,113404
98917,113381
98877,113370
98871,113333
98928,113412
98977,113430
98943,113410
98947,113352
98918,113415
98986,113403
99060,113462
99030,113446
99013,113424
98979,113403
99052,113478
99103,113454
99094,113498
99059,113405
99084,113459
99116,113498
99177,113479
99148,113514
99119,113454
99177,113482
99217,113547
99247,113521
99266,113578
99226,113499
99271,113540
99316,113577
99379,113586
99380,113599
99315,113546
99351,113607
99403,113615
99433,113615
99411,113639
99385,113558
99458,113602
99464,113694
99512,113651
99519,113684
99493,113600
99570,113679
99607,113733
99677,113730
99678,113747
99664,113726
99727,113740
99806,113815
99804,113850
99839,113796
99806,113810
99856,113789
99924,113874
99957,113882
99941,113844
99969,113864
99989,113884
100071,113918
100076,113985
100050,113898
100100,113905
100118,113947
100181,114015
100195,113998
100223,114001
100211,114003
100250,113973
100318,114082
100349,114081
100363,114040
100347,114072
100418,114046
100503,114137
100497,114156
100486,114088
100478,114128
100520,114107
100561,114166
100540,114156
100477,114068
100396,114058
100456,114066
100394,114058
100365,114028
100198,113910
100119,113833
100081,113885
99991,113831
99925,113795
99742,113660
99700,113605
99600,113643
99535,113596
99519,113575
99361,113478
99300,113428
99277,113430
99258,113428
99159,113374
99101,113303
99055,113304
99048,113301
99096,113305
99019,113334
98968,113252
98954,113266
98995,113266
99072,113299
99007,113319
98997,113238
99037,113286
99047,113303
99082,113330
99095,113328
99049,113273
99090,113296
99105,113331
99183,113366
99151,113378
99151,113305
99210,113383
99251,113382
99340,113426
99311,113432
99358,113399
99382,113491
99482,113492
99552,113561
99597,113556
99590,113537
99662,113579
99728,113676
99796,113676
99813,113688
99791,113651
99881,113694
99959,113786
99976,113773
100018,113777
99998,113760
100092,113774
100142,113886
100168,113838
100217,113877
100149,113851
100227,113847
100289,113933
100298,113939
100277,113872
100292,113865
100308,113918
100340,113944
100386,113969
100347,113933
100282,113903
100362,113925
100389,113977
100399,113932
100364,113958
100331,113882
100408,113926
100417,113997
100414,113942
100416,113960
100375,113894
100411,113943
100438,113971
100457,113957
100399,113895
100459,113948
100441,113934
100514,113979
100505,114019
100491,113919
100507,113974
100538,113965
100594,114057
100576,114047
100559,114024
100557,113988
100638,114047
100687,114093
100674,114097
100659,114045
100651,114052
100708,114108
100730,114121
100815,114145
100785,114110
100807,114085
100905,114206
100929,114211
101000,114219
100961,114196
101035,114178
101088,114299
101136,114293
101195,114332
101153,114260
101180,114278
101272,114368
101312,114380
101322,114379
101264,114325
101326,114373
101404,114423
101434,114474
101429,114391
101461,114392
101433,114457
101538,114456
101614,114514
101555,114475
101566,114447
101598,114515
101664,114518
101698,114563
101713,114583
101657,114519
101699,114533
101752,114598
101779,114579
101791,114621
101773,114568
101853,114594
101865,114655
101925,114552
101932,114589
101909,114534
101963,114556
102019,114645
102005,114632
102038,114594
102019,114575
102035,114575
102095,114657
102043,114626
102018,114597
101896,114490
101892,114494
101839,114520
101774,114428
101649,114389
101496,114293
101471,114259
101380,114262
101251,114162
101152,114131
100987,114007
100946,114000
100880,113995
100798,113928
100722,113851
100595,113817
100546,113801
100543,113801
100516,113815
100434,113713
100384,113678
100372,113732
100392,113719
100385,113740
100339,113672
100347,113649
100367,113738
100397,113719
100440,113787
100396,113704
100421,113707
100452,113773
100514,113807
100547,113825
100570,113783
100591,113809
100654,113841
100724,113930
100737,113900
100752,113908
100775,113896
100842,113966
100928,113996
100987,114047
100940,113977
101014,113999
101068,114085
101139,114124
101200,114125
101231,114106
101227,114168
101319,114165
101392,114261
101398,114232
101451,114246
101474,114286
101558,114295
101645,114392
101626,114356
101655,114358
101675,114376
101737,114380
101762,114461
101745,114387
101746,114384
101765,114387
101816,114444
101809,114453
101833,114423
101738,114387
101783,114425
101808,114443
101811,114446
101800,114420
101784,114388
101825,114410
101810,114432
101872,114479
101842,114430
101830,114393
101837,114399
101897,114480
101903,114490
101924,114457
101886,114412
101926,114464
102022,114521
102016,114537
102060,114535
102034,114507
102115,114530
102187,114599
102170,114630
102149,114572
102149,114559
102206,114579
102223,114641
102257,114608
102227,114628
102218,114569
102249,114654
102287,114629
102319,114659
102260,114613
102283,114610
102314,114631
102328,114707
102376,114675
102347,114685
102315,114625
102393,114673
102429,114725
102447,114710
102448,114713
102463,114691
102517,114743
102582,114807
102579,114808
102561,114766
102553,114717
102636,114816
102642,114811
102676,114821
102609,114800
102596,114747
102708,114838
102642,114836
102691,114832
102653,114812
102643,114779
102704,114851
102704,114837
102764,114838
102702,114805
102713,114846
102763,114853
102840,114898
102825,114904
102804,114807
102819,114876
102820,114883
102866,114919
102900,114927
102821,114882
102824,114849
102943,114954
102903,114944
102950,114910
102908,114931
102880,114890
102931,114952
102952,114933
102940,114940
102859,114831
102844,114852
102767,114846
102739,114802
102610,114767
102467,114612
102353,114594
102251,114518
102180,114509
101960,114414
101813,114286
101716,114239
101642,114221
101506,114171
101428,114104
101266,114008
101245,113991
101181,113993
101146,114003
101008,113897
100976,113847
100924,113876
100921,113855
100905,113874
100814,113811
100802,113762
100785,113795
100804,113795
100847,113845
100766,113780
100777,113741
100813,113791
100875,113862
100853,113872
100892,113852
100884,113867
100950,113885
100989,113923
101061,113962
101033,113945
101097,113904
101149,113997
101184,114000
101259,114049
101221,114048
101245,113999
101337,114095
101380,114086
101427,114133
101442,114110
101472,114116
101519,114175
101634,114234
101638,114261
101656,114189
101703,114246
101737,114291
101845,114347
101864,114378
101869,114289
101885,114363
101939,114336
102039,114444
102026,114400
102009,114396
102081,114398
102110,114456
102168,114486
102242,114493
102169,114445
102185,114479
102183,114487
102235,114526
102214,114540
102186,114411
102165,114463
102159,114449
102201,114497
102164,114500
102146,114390
102126,114423
102123,114422
102149,114479
102126,114448
102111,114393
102087,114391
102124,114426
102162,114469
102176,114459
102084,114375
102115,114389
102156,114476
102187,114465
102169,114463
102122,114415
102140,114401
102213,114506
102179,114471
102223,114456
102144,114460
102176,114434
102236,114471
102278,114504
102216,114490
102220,114431
102214,114427
102316,114535
102302,114534
102329,114502
102293,114493
102356,114487
102405,114612
102431,114616
102431,114568
102440,114575
102442,114577
102547,114627
102557,114678
102595,114621
102535,114580
102611,114663
102680,114717
102650,114707
102688,114699
102649,114647
102722,114675
102755,114770
102793,114727
102825,114738
102766,114729
102821,114724
102896,114815
102881,114784
102911,114785
102847,114751
102894,114757
102940,114830
102961,114829
102965,114800
102925,114806
102947,114800
103007,114847
103027,114842
102981,114827
103002,114775
103052,114855
103058,114872
103139,114887
103072,114857
103054,114810
103117,114874
103103,114896
103096,114882
103022,114835
102993,114781
102930,114802
102871,114735
102807,114692
102593,114580
102502,114508
102382,114506
102295,114435
102139,114370
101931,114236
101800,114135
101721,114117
101601,114072
101512,114000
101348,113920
101249,113874
101184,113850
101161,113852
101073,113785
100927,113754
100880,113678
100921,113710
100827,113688
100799,113664
100725,113637
100721,113561
100736,113637
100730,113626
100753,113614
100686,113617
100726,113593
100833,113690
100840,113695
100863,113696
100780,113648
100853,113668
100924,113709
100954,113768
100920,113718
100955,113712
100945,113741
101004,113758
101057,113831
101024,113788
101047,113773
101046,113791
101143,113821
101160,113893
101141,113845
101185,113843
101221,113841
101326,113923
101368,113946
101348,113972
101378,113891
101471,113988
101481,113996
101547,114058
101572,114031
101553,114013
101609,114031
101711,114125
101694,114114
101671,114061
101696,114076
101698,114098
101751,114144
101754,114138
101695,114085
101706,114100
101699,114091
101735,114133
101782,114130
101747,114142
101718,114042
101749,114102
101758,114132
101794,114128
101732,114104
101685,114039
101735,114091
101716,114107
101703,114102
101673,114052
101648,114050
101690,114084
101674,114090
101714,114079
101663,114070
101625,114013
101718,114072
101717,114114
101736,114093
101724,114089
101709,114069
101775,114100
101816,114159
101811,114104
101772,114125
101770,114068
101836,114134
101858,114171
101834,114172
101848,114135
101859,114117
101902,114193
101938,114197
101922,114213
101951,114156
101945,114223
101987,114216
102073,114260
102029,114285
102024,114199
102063,114235
102091,114310
102133,114312
102143,114312
102107,114273
102092,114292
102175,114308
102217,114330
102206,114347
102138,114277
102219,114317
102222,114374
102284,114358
102298,114402
102249,114325
102314,114338
102330,114420
102404,114410
102382,114401
102398,114374
102407,114414
102484,114457
102534,114491
102523,114485
102566,114424
102609,114504
102629,114546
102715,114584
102698,114583
102671,114495
102712,114570
102743,114580
102793,114598
102754,114593
102707,114519
102745,114573
102716,114593
102722,114560
102672,114518
102574,114447
102530,114447
102435,114434
102387,114377
102236,114254
102117,114190
102002,114140
101951,114128
101770,114065
101636,113923
101538,113886
101380,113839
101360,113794
101244,113795
101112,113652
101052,113626
100952,113600
100956,113596
100868,113578
100827,113507
100772,113482
100750,113538
100744,113484
100747,113526
100658,113432
100646,113453
100673,113459
100719,113472
100663,113495
100650,113423
100621,113461
100667,113450
100698,113496
100673,113477
100674,113438
100683,113455
100684,113489
100746,113522
100790,113523
100772,113507
100775,113454
100855,113553
100864,113586
100941,113605
100915,113602
100943,113552
101070,113676
101068,113712
101111,113673
101090,113689
101119,113650
101186,113748
101240,113745
101242,113752
101196,113709
101239,113732
101234,113779
101311,113804
101290,113783
101258,113746
101258,113720
101322,113803
101356,113792
101353,113806
101346,113762
101377,113779
101451,113829
101479,113887
101492,113868
101475,113838
101459,113834
101531,113896
101529,113904
101513,113854
101401,113812
101466,113829
101433,113820
101482,113839
101403,113811
101419,113789
101367,113780
101431,113822
101396,113806
101421,113796
101375,113744
101386,113792
101423,113825
101427,113831
101402,113796
101373,113791
101388,113756
101420,113844
101417,113789
101429,113802
101351,113762
101404,113781
101454,113834
101445,113797
101422,113796
101377,113766
101456,113776
101450,113879
101488,113810
101491,113819
101458,113766
101510,113812
101550,113871
101535,113865
101533,113802
101544,113829
101549,113851
101664,113888
101611,113922
101592,113842
101642,113890
101622,113894
101708,113930
101677,113946
101686,113870
101717,113932
101768,113948
101813,114013
101854,114015
101805,113983
101823,113996
101907,113995
101981,114098
101971,114050
101970,114033
101960,114012
102000,114071
102075,114098
102085,114128
102013,114099
102032,114047
102094,114121
102088,114122
102096,114128
102067,114075
102117,114086
102165,114123
102166,114187
102206,114127
102174,114132
102156,114105
102254,114169
102201,114200
102222,114155
102150,114130
102119,114056
102116,114120
102035,114052
101985,114016
101789,113927
101693,113879
101606,113855
101475,113787
101392,113695
101239,113598
101106,113574
101058,113514
101015,113541
100841,113428
100764,113340
100676,113325
100660,113314
100613,113341
100512,113247
100475,113176
100389,113197
100380,113173
100353,113198
100271,113120
100221,113072
100171,113069
100207,113091
100184,113116
100125,113029
100130,113005
100121,113038
100175,113089
100151,113047
100133,113023
100125,113028
100143,113030
100216,113061
100228,113138
100229,113062
100264,113086
100305,113123
100337,113138
100412,113208
100384,113161
100364,113122
100445,113180
100471,113267
100508,113217
100530,113244
100516,113180
100594,113299
100646,113339
100715,113342
100718,113334
100721,113295
100768,113369
100893,113421
100899,113449
100878,113382
100892,113437
100960,113484
100988,113463
101054,113504
100975,113486
100987,113408
101060,113527
101067,113529
101108,113506
101071,113503
101062,113473
101132,113531
101134,113557
101165,113546
101097,113519
101105,113491
101158,113515
101128,113563
101163,113542
101072,113486
101110,113491
101105,113527
101142,113524
101072,113502
101086,113435
101059,113490
101052,113471
101101,113517
101047,113524
100993,113396
101049,113494
101032,113476
101083,113515
101068,113505
101032,113450
101050,113445
101142,113499
101140,113566
101115,113480
101135,113466
101072,113490
101142,113516
101135,113557
101137,113490
101082,113497
101117,113451
101171,113529
101173,113508
101158,113522
101110,113488
101141,113508
101170,113511
101156,113559
101157,113519
101125,113457
101136,113497
101210,113530
101219,113586
101194,113495
101176,113492
101173,113495
101252,113543
101218,113574
101203,113500
101200,113551
101192,113490
101268,113576
101256,113579
101229,113529
101202,113493
101252,113534
101294,113593
101300,113589
101327,113590
101306,113588
101395,113590
101414,113680
101420,113649
101459,113631
101415,113632
101476,113622
101536,113714
101518,113716
101526,113652
101526,113666
101551,113706
101605,113761
101604,113758
101586,113682
101583,113707
101598,113703
101655,113724
101591,113740
101518,113619
101469,113632
101413,113572
101378,113613
101261,113515
101134,113426
101037,113347
100991,113362
100915,113352
100810,113278
100692,113179
100587,113137
100514,113137
100509,113094
100400,113100
100274,112964
100276,112980
100228,112986
100215,112942
100160,112985
100073,112867
100068,112872
100057,112893
100085,112878
100055,112922
100005,112826
100000,112840
100043,112887
100063,112907
100081,112888
100014,112843
100084,112885
100146,112917
100142,112949
100170,112936
100175,112912
100160,112917
100261,112995
100290,113013
100255,112986
100266,112949
100300,112968
100318,113040
100386,113076
100395,113067
100391,113022
100406,113046
100514,113117
100549,113150
100567,113129
100597,113130
100614,113141
100713,113227
100752,113240
100755,113237
100729,113193
100773,113258
100839,113297
100933,113320
100909,113318
100905,113275
100942,113326
100978,113370
101031,113370
100991,113312
100944,113311
100947,113286
100998,113357
100952,113348
100916,113272
100890,113269
100890,113240
100926,113320
100881,113275
100881,113268
100823,113246
100867,113236
100893,113288
100875,113301
100819,113272
100791,113216
100864,113255
100869,113315
100884,113270
100845,113273
100789,113229
100859,113263
100856,113315
100842,113239
100856,113257
100789,113268
100861,113272
100915,113318
100925,113301
100885,113297
100943,113289
100971,113296
101037,113369
101028,113389
100959,113327
101014,113310
101049,113394
101086,113385
101105,113440
101073,113388
101078,113341
101156,113425
101205,113482
101183,113424
101176,113407
101183,113444
101260,113462
101268,113505
101292,113522
101259,113462
101310,113456
101362,113523
101430,113548
101409,113594
101423,113523
101489,113573
101501,113631
101575,113627
101602,113674
101550,113573
101624,113640
101639,113693
101736,113689
101710,113711
101718,113692
101766,113738
101825,113789
101900,113827
101889,113754
101909,113763
101897,113774
101998,113827
102020,113889
102004,113807
102041,113838
102019,113865
102113,113902
102144,113946
102156,113875
102131,113887
102125,113874
102210,113944
102220,113977
102205,113939
102107,113856
102094,113855
102098,113887
101958,113830
101885,113740
101697,113639
101625,113600
101499,113552
101390,113501
101242,113414
101086,113275
101019,113317
100890,113246
100845,113195
100705,113136
100602,113054
100505,113052
100468,113032
100428,113003
100312,112910
100254,112855
100225,112919
100174,112877
100193,112898
100075,112823
100093,112786
100070,112820
100107,112823
100107,112861
100077,112800
100013,112780
100074,112823
100092,112833
100096,112838
100074,112812
100039,112789
100142,112838
100144,112889
100131,112815
100145,112832
100114,112824
100186,112869
100197,112925
100216,112861
100170,112876
100155,112822
100257,112929
100250,112932
100270,112904
100239,112871
100249,112891
100343,112976
100358,112983
100443,113001
100412,112963
100441,112990
100500,113023
100538,113072
100571,113062
100522,113035
100591,113032
100645,113115
100706,113132
100654,113115
100692,113099
100668,113082
100729,113140
100738,113180
100725,113155
100707,113085
100712,113113
100733,113149
100738,113167
100757,113135
100676,113080
100744,113126
100742,113161
100794,113169
100743,113142
100697,113066
100750,113129
100758,113175
100741,113126
100727,113115
100685,113070
100691,113060
100694,113123
100741,113144
100708,113100
100644,113081
100629,113026
100730,113141
100668,113116
100677,113077
100662,113081
100691,113062
100738,113159
100731,113129
100756,113112
100706,113121
100748,113117
100815,113182
100824,113179
100818,113125
100819,113143
100846,113165
100862,113187
100916,113184
100861,113212
100857,113124
100944,113219
100915,113270
100966,113224
100963,113238
100922,113189
100999,113263
101000,113292
101044,113249
100991,113249
100979,113226
100998,113254
100977,113260
101020,113226
100932,113237
100918,113147
101002,113240
100992,113225
100998,113240
100935,113192
100942,113176
101005,113258
101015,113274
101004,113264
100953,113191
101016,113202
101038,113262
101060,113274
101122,113306
101027,113225
101069,113213
101092,113313
101107,113280
101124,113280
101056,113242
101067,113205
101116,113321
101097,113279
101134,113250
101062,113255
101060,113187
101119,113294
101066,113253
101031,113236
100941,113159
100911,113146
100903,113159
100806,113121
100731,113101
100589,112952
100545,112913
100477,112980
100392,112875
100301,112845
100150,112736
100107,112698
100017,112747
99939,112639
99870,112623
99698,112502
99644,112495
99618,112503
99572,112480
99495,112436
99418,112351
99422,112359
99396,112368
99394,112356
99317,112342
99268,112255
99265,112281
99329,112318
99275,112356
99301,112281
99272,112305
99276,112282
99362,112348
99365,112374
99346,112362
99323,112314
99404,112362
99459,112372
99449,112422
99425,112331
99444,112333
99439,112413
99563,112425
99590,112467
99531,112412
99571,112409
99607,112483
99680,112477
99719,112531
99685,112455
99746,112507
99774,112530
99836,112619
99856,112612
99885,112571
99881,112596
99944,112606
100038,112692
100016,112718
100044,112649
100020,112667
100065,112660
100131,112761
100073,112731
100106,112667
100050,112700
100082,112668
100136,112741
100108,112717
100045,112636
100037,112631
100080,112685
100046,112681
100055,112643
99976,112651
99948,112591
100011,112645
100016,112644
99990,112649
99952,112537
99940,112572
99939,112614
99977,112612
99964,112632
99884,112535
99925,112556
99974,112620
99991,112624
99947,112619
99946,112619
99928,112574
100080,112684
100043,112712
100094,112642
100040,112673
100056,112642
100133,112720
100136,112711
100144,112687
100110,112711
100108,112661
100206,112768
100200,112741
100192,112736
100190,112714
100190,112704
100287,112779
100303,112818
100241,112747
100281,112731
100280,112799
100312,112766
100377,112831
100320,112802
100345,112763
100365,112839
100429,112821
100476,112888
100427,112824
100454,112837
100469,112861
100532,112887
100578,112919
100578,112937
100559,112873
100664,112933
100649,113007
100740,113027
100726,112963
100743,112971
100784,113060
100849,113034
100867,113074
100833,113074
100856,113032
100892,113113
100943,113108
100962,113138
100948,113066
100915,113089
100982,113135
101058,113148
101035,113198
100998,113092
101043,113142
101026,113188
101101,113194
101103,113220
101042,113105
101028,113137
100979,113146
100981,113132
100878,113078
100751,112989
100641,112905
100569,112864
100518,112887
100405,112783
100235,112720
100114,112626
100093,112637
100004,112629
99925,112551
99872,112511
99743,112450
99787,112446
99723,112466
99666,112406
99617,112389
99550,112331
99591,112383
99595,112406
99534,112348
99491,112340
99467,112305
99552,112378
99565,112395
99549,112368
99545,112322
99572,112370
99566,112361
99653,112422
99640,112439
99632,112365
99707,112426
99744,112495
99820,112503
99852,112547
99826,112496
99850,112518
99925,112586
100009,112646
100013,112576
99994,112604
100012,112585
100144,112698
100152,112723
100190,112682
100187,112715
100233,112701
100329,112802
100390,112818
100375,112816
100417,112784
100511,112849
100560,112918
100604,112925
100645,112917
100609,112905
100704,112975
100767,113005
100736,113057
100699,112936
100718,112959
100684,112991
100759,112978
100738,113005
100685,112929
100679,112951
100676,112943
100737,112986
100706,113009
100643,112902
100635,112901
100657,112927
100620,112965
100637,112946
100623,112874
100571,112880
100578,112878
100619,112928
100581,112916
100578,112829
100512,112862
100530,112858
100598,112906
100568,112928
100515,112828
100551,112848
100550,112874
100619,112920
100609,112927
100530,112844
100570,112848
100624,112903
100636,112922
100694,112966
100599,112881
100667,112888
100692,112975
100769,112965
100714,112997
100731,112950
100710,112926
100803,113009
100820,113058
100846,113019
100850,113012
100857,113010
100947,113102
100992,113106
100981,113126
100942,113031
100994,113093
101006,113165
101057,113137
101065,113169
101001,113068
101041,113112
101049,113144
101131,113170
101115,113196
101096,113096
101117,113176
101168,113196
101223,113241
101172,113190
101202,113187
101174,113198
101297,113240
101263,113255
101276,113216
101300,113242
101296,113245
101413,113305
101421,113363
101440,113297
101433,113321
101446,113326
101571,113409
101563,113439
101539,113383
101532,113374
101551,113385
101580,113397
101578,113419
101481,113333
101467,113297
101373,113294
101372,113270
101270,113276
101153,113139
100975,113060
100902,113033
100794,112978
100719,112913
100541,112855
100398,112704
100357,112719
100258,112711
100132,112631
100040,112579
99955,112481
99881,112509
99810,112458
99781,112455
99652,112386
99586,112272
99611,112355
99551,112360
99524,112306
99465,112280
99437,112204
99425,112268
99414,112269
99447,112278
99369,112219
99361,112199
99442,112277
99462,112302
99489,112282
99425,112277
99459,112256
99518,112341
99540,112318
99576,112338
99527,112295
99567,112275
99619,112377
99635,112378
99691,112414
99646,112418
99723,112376
99786,112488
99854,112496
99910,112541
99887,112495
99974,112523
100021,112612
100095,112600
100131,112660
100077,112571
100113,112642
100226,112684
100230,112718
100271,112697
100205,112678
100282,112718
100334,112744
100368,112784
100356,112759
100322,112736
100334,112744
100428,112813
100471,112799
100407,112799
100409,112780
100420,112770
100480,112844
100483,112824
100462,112810
100450,112774
100416,112768
100513,112837
100480,112819
100475,112812
100394,112753
100455,112781
100495,112836
100490,112856
100474,112782
100457,112744
100524,112808
100551,112893
100562,112865
100601,112863
100543,112846
100590,112810
100676,112957
100632,112895
100663,112880
100619,112911
100670,112906
100733,112985
100732,112962
100725,112937
100693,112954
100708,112949
100793,112996
100802,113005
100760,112991
100767,112909
100773,113007
100820,112994
100842,113027
100859,112982
100804,112957
100909,113030
100982,113103
100967,113091
101008,113055
100964,113079
101051,113136
101129,113165
101124,113168
101152,113167
101171,113149
101205,113238
101258,113226
101309,113262
101257,113225
101288,113224
101342,113302
101425,113311
101433,113351
101387,113275
101467,113332
101521,113381
101570,113436
101621,113429
101589,113355
101623,113416
101693,113454
101769,113481
101768,113500
101684,113445
101728,113452
101816,113537
101828,113513
101844,113542
101797,113495
101862,113496
101910,113609
101924,113568
101966,113598
101889,113566
101907,113549
101968,113587
101951,113583
101904,113546
101785,113502
101728,113405
101640,113460
101545,113346
101430,113260
101249,113175
101077,113088
101035,113032
100859,113029
100712,112885
100577,112809
100425,112758
100332,112691
100254,112688
100099,112581
99998,112501
99921,112440
99836,112478
99773,112459
99645,112340
99619,112317
99505,112275
99532,112287
99471,112311
99389,112217
99342,112207
99328,112196
99393,112220
99333,112251
99289,112180
99256,112149
99300,112173
99352,112177
99326,112213
99277,112155
99319,112172
99317,112181
99396,112213
99369,112255
99344,112150
99374,112186
99359,112208
99449,112239
99435,112280
99405,112172
99423,112240
99445,112205
99554,112288
99540,112290
99492,112264
99573,112281
99638,112319
99680,112363
99751,112409
99749,112371
99736,112336
99841,112413
99869,112491
99914,112466
99886,112464
99866,112426
99983,112503
99978,112548
99971,112476
99980,112489
99967,112474
99992,112507
99994,112551
100004,112525
99953,112471
99939,112440
100025,112520
99981,112543
99977,112491
99929,112455
99926,112396
99943,112489
99922,112455
99916,112490
99907,112417
99881,112420
99928,112458
99962,112514
99975,112487
99944,112419
99926,112491
100024,112516
100061,112532
100040,112556
99987,112473
100062,112522
100077,112595
100089,112549
100118,112564
100036,112506
100099,112530
100120,112625
100178,112612
100139,112601
100123,112534
100148,112614
100208,112637
100265,112651
100263,112648
100252,112573
100316,112659
100362,112725
100432,112699
100430,112735
100388,112686
100510,112721
100513,112821
100547,112787
100562,112811
100512,112764
100600,112789
100618,112880
100644,112864
100596,112803
100619,112814
100640,112805
100690,112883
100679,112862
100700,112842
100665,112855
100745,112861
100815,112955
100813,112902
100807,112904
100817,112882
100906,112959
100972,113039
100989,113007
100988,112993
100992,113006
101033,113049
101084,113077
101125,113070
101081,113055
101065,113010
101168,113095
101146,113157
101179,113094
101170,113112
101101,113046
101191,113112
101204,113174
101239,113116
101209,113112
101172,113065
101259,113155
101272,113168
101259,113138
101203,113112
101136,113081
101130,113072
101050,113010
100980,112980
100796,112883
100636,112748
100621,112769
100439,112760
100327,112616
100174,112538
100028,112426
99995,112466
99877,112440
99802,112353
99648,112276
99577,112212
99550,112230
99482,112226
99440,112137
99354,112127
99313,112062
99341,112121
99284,112136
99288,112121
99188,112032
99237,112057
99241,112079
99290,112090
99224,112097
99156,111985
99254,112071
99228,112099
99271,112114
99247,112080
99204,112021
99240,112011
99320,112132
99307,112146
99308,112100
99312,112096
99354,112079
99428,112167
99433,112218
99453,112150
99461,112169
99465,112157
99580,112250
99555,112266
99601,112228
99592,112226
99639,112297
99726,112350
99748,112355
99736,112337
99789,112343
99828,112359
99937,112428
99950,112479
99946,112407
99991,112440
99983,112473
100064,112508
100072,112552
100040,112451
100069,112471
100099,112482
100133,112541
100148,112542
100115,112509
100144,112488
100123,112518
100198,112537
100130,112569
100130,112482
100135,112493
100115,112490
100160,112545
100137,112504
100090,112489
100054,112454
100120,112479
100117,112534
100079,112500
100076,112475
100047,112472
100096,112520
100110,112552
100146,112546
100088,112462
100135,112470
100160,112557
100184,112533
100230,112576
100159,112483
100213,112516
100228,112573
100319,112584
100307,112638
100290,112604
100295,112602
100394,112654
100441,112657
100484,112705
100443,112654
100449,112678
100533,112706
100550,112786
100536,112705
100570,112711
100548,112719
100628,112771
100660,112817
100656,112754
100653,112748
100658,112780
100769,112835
100773,112868
100764,112812
100775,112810
100789,112805
100861,112881
100917,112943
100925,112899
100875,112860
100950,112902
101053,113008
101044,113047
101095,112965
101080,112999
101115,112997
101249,113116
101243,113141
101257,113090
101338,113117
101332,113119
101440,113213
101493,113233
101463,113209
101534,113233
101565,113241
101641,113302
101656,113333
101697,113300
101680,113324
101726,113319
101856,113409
101845,113455
101854,113389
101876,113389
101913,113447
101961,113459
102008,113520
101967,113469
101960,113452
102056,113507
102079,113564
102110,113545
102089,113512
102048,113517
102110,113503
102108,113568
102031,113501
101988,113456
101835,113391
101792,113341
101696,113330
101514,113194
101343,113086
101144,113007
101034,112937
100919,112884
100781,112835
100588,112697
100468,112626
100391,112608
100332,112611
100189,112496
100115,112432
100013,112420
100005,112381
99988,112440
99866,112342
99841,112274
99775,112315
99801,112291
99780,112341
99758,112287
99694,112240
99675,112259
99746,112285
99725,112295
99715,112273
99734,112229
99738,112293
99766,112289
99833,112357
99781,112320
99795,112269
99802,112326
99895,112377
99907,112375
99937,112365
99870,112355
99921,112367
99987,112427
100011,112438
99995,112414
100017,112401
100052,112451
100176,112520
100196,112555
100245,112538
100220,112522
100320,112571
100372,112642
100443,112667
100454,112662
100499,112657
100537,112694
100605,112772
100662,112789
100663,112756
100658,112717
100724,112803
100784,112848
100837,112860
100789,112828
100812,112800
100888,112853
100886,112905
100968,112904
100941,112929
100921,112868
101049,112943
101052,113015
101127,112984
101125,112991
101095,112951
101158,112995
101226,113053
101184,113027
101150,113015
101117,112966
101173,113034
101181,113052
101235,113056
101137,112984
101142,112934
101145,113025
101185,113051
101166,113009
101154,112953
101152,112994
101166,112988
101245,113050
101214,113069
101236,113022
101178,113024
101255,113094
101278,113101
101339,113100
101265,113057
101294,113039
101358,113132
101374,113114
101386,113151
101335,113086
101370,113070
101379,113160
101411,113136
101437,113189
101397,113116
101454,113123
101506,113194
101560,113242
101611,113246
101597,113199
101649,113299
101765,113314
101876,113409
101854,113388
101899,113357
101958,113442
102027,113440
102098,113527
102073,113500
102122,113475
102110,113533
102180,113531
102253,113598
102241,113576
102216,113536
102289,113564
102329,113615
102372,113656
102350,113629
102380,113596
102384,113673
102475,113673
102446,113706
102459,113692
102433,113639
102522,113708
102521,113732
102566,113711
102557,113753
102484,113669
102545,113709
102602,113765
102649,113784
102607,113750
102577,113719
102661,113740
102696,113834
102700,113792
102711,113823
102681,113758
102730,113825
102788,113850
102836,113856
102778,113865
102771,113804
102839,113889
102876,113874
102849,113871
102764,113814
102741,113784
102699,113771
102630,113779
102485,113670
102363,113592
102132,113456
102040,113405
101897,113386
101710,113230
101498,113134
101298,113016
101226,112947
101099,112978
100955,112822
100828,112776
100688,112678
100638,112691
100565,112678
100538,112625
100415,112532
100382,112519
100320,112499
100337,112554
100248,112526
100227,112481
100186,112431
100225,112502
100216,112495
100223,112492
100169,112456
100195,112418
100230,112510
100262,112512
100276,112522
100248,112504
100309,112513
100381,112565
100447,112631
100450,112595
100478,112605
100473,112651
100584,112674
100641,112750
100665,112698
100662,112737
100683,112708
100827,112837
100848,112841
100875,112848
100920,112823
100964,112856
101020,112941
101094,112978
101154,112966
101100,112960
101183,112954
101272,113098
101309,113109
101382,113079
101312,113098
101367,113072
101434,113188
101445,113160
101465,113156
101418,113119
101474,113126
101507,113231
101529,113199
101488,113146
101478,113147
101547,113176
101574,113221
101581,113224
101598,113195
101520,113170
101601,113175
101620,113274
101600,113236
101613,113216
101518,113185
101545,113161
101613,113265
101571,113223
101557,113181
101529,113162
101540,113209
101600,113222
101570,113230
101545,113149
101559,113180
101569,113216
101668,113220
101657,113280
101634,113196
101656,113244
101684,113271
101768,113352
101776,113312
101818,113306
101822,113310
101865,113364
101921,113409
101930,113409
101896,113383
101899,113376
101962,113391
102058,113440
102007,113478
102011,113390
102036,113430
102076,113442
102142,113512
102122,113527
102151,113457
102143,113503
102174,113518
102286,113593
102228,113570
102274,113551
102291,113556
102381,113619
102428,113660
102463,113695
102451,113626
102490,113664
102502,113714
102571,113722
102664,113758
102568,113716
102595,113715
102677,113827
102710,113809
102778,113818
102737,113766
102759,113766
102843,113891
102886,113879
102891,113855
102909,113835
102877,113857
103013,113927
103018,113972
103012,113910
103016,113933
102989,113924
103119,113995
103129,114020
103146,113954
103073,113975
103171,114022
103221,114020
103264,114065
103236,114067
103217,114023
103240,114075
103346,114089
103389,114150
103386,114130
103333,114069
103386,114099
103432,114210
103454,114140
103464,114160
103396,114104
103436,114131
103451,114203
103452,114138
103423,114141
103293,114048
103287,114008
103231,114029
103150,113989
102944,113859
102793,113743
102633,113705
102523,113630
102386,113553
102151,113443
101919,113267
101828,113276
101680,113188
101587,113131
101398,113066
101280,112946
101228,112972
101166,112925
101127,112882
101000,112845
100922,112791
100954,112827
100913,112803
100921,112836
100862,112774
100756,112720
100840,112754
100856,112805
100848,112775
100798,112765
100811,112762
100829,112817
100880,112805
100945,112801
100871,112818
100851,112757
100973,112874
101001,112908
101033,112878
100983,112867
101027,112841
101098,112951
101111,112957
101193,112947
101135,112953
101156,112921
101321,113051
101332,113064
101422,113059
101386,113067
101469,113070
101569,113206
101665,113219
101729,113278
101713,113235
101754,113250
101910,113344
101947,113411
101940,113368
101953,113355
101942,113388
102027,113387
102075,113465
102064,113415
102034,113386
102044,113415
102111,113424
102150,113486
102114,113458
102114,113407
102110,113449
102172,113498
102159,113506
102155,113420
102084,113431
102083,113411
102196,113512
102177,113465
102162,113463
102085,113399
102133,113440
102209,113500
102204,113519
102221,113441
102156,113478
102158,113462
102278,113517
102266,113556
102235,113482
102201,113472
102273,113512
102311,113568
102348,113593
102339,113527
102309,113537
102348,113541
102449,113640
102445,113605
102464,113586
102396,113607
102467,113584
102552,113700
102542,113669
102536,113657
102539,113619
102574,113668
102637,113714
102669,113726
102637,113720
102601,113678
102671,113686
102718,113803
102715,113754
102745,113737
102723,113757
102799,113760
102878,113864
102870,113842
102861,113813
102877,113851
102939,113830
103035,113939
103030,113916
103021,113896
103026,113930
103087,113961
103140,114018
103144,113960
103154,113978
103165,113972
103216,113994
103297,114053
103276,114058
103271,113995
103257,114034
103337,114051
103426,114137
103411,114138
103369,114030
103413,114093
103463,114129
103463,114125
103502,114188
103439,114120
103473,114112
103509,114225
103542,114159
103558,114180
103462,114133
103496,114127
103601,114223
103600,114191
103616,114184
103558,114147
103577,114210
103711,114252
103709,114263
103729,114256
103684,114223
103739,114267
103779,114311
103854,114367
103818,114315
103768,114260
103767,114272
103832,114307
103828,114287
103711,114243
103611,114164
103495,114133
103466,114096
103286,114005
103147,113914
102929,113774
102775,113712
102679,113664
102536,113601
102318,113461
102143,113378
102013,113306
102004,113302
101839,113267
101734,113160
101628,113087
101607,113077
101558,113136
101531,113064
101445,113039
101335,112958
101360,112969
101374,113049
101353,113003
101281,112934
101237,112939
101260,112956
101336,113006
101331,113038
101302,112936
101263,112967
101316,112983
101396,113077
101383,113033
101392,113006
101374,113044
101460,113067
101562,113157
101570,113146
101545,113100
101529,113126
101644,113172
101734,113233
101747,113225
101748,113217
101801,113237
101885,113311
101980,113359
102062,113364
102045,113376
102083,113392
102200,113483
102304,113534
102322,113533
102328,113509
102378,113534
102446,113607
102527,113645
102525,113623
102521,113576
102489,113592
102606,113702
102609,113697
102625,113649
102560,113620
102569,113616
102637,113701
102695,113699
102641,113683
102633,113659
102607,113670
102696,113728
102682,113707
102673,113710
102618,113624
102602,113651
102622,113678
102695,113688
102603,113647
102584,113642
102562,113620
102607,113660
102591,113652
102573,113628
102543,113573
102487,113605
102595,113666
102594,113670
102568,113617
102553,113585
102571,113622
102617,113700
102685,113712
102635,113663
102613,113647
102624,113661
102699,113736
102734,113712
102699,113712
102701,113666
102697,113712
102806,113775
102799,113772
102813,113736
102748,113709
102847,113771
102919,113813
102926,113834
102931,113821
102917,113818
102982,113836
103048,113890
103085,113919
103048,113873
103043,113872
103121,113904
103145,113967
103197,113959
103156,113901
103166,113910
103187,113972
103301,114017
103302,113994
103249,113970
103278,113961
103318,114026
103390,114062
103384,114057
103350,113975
103364,114025
103450,114076
103480,114105
103500,114105
103438,114054
103450,114065
103519,114099
103540,114168
103591,114159
103530,114096
103567,114105
103582,114175
103691,114206
103689,114203
103664,114166
103668,114181
103727,114239
103746,114235
103787,114256
103694,114201
103752,114221
103798,114266
103820,114282
103829,114276
103778,114229
103786,114237
103816,114256
103914,114317
103869,114291
103827,114232
103820,114224
103855,114298
103887,114300
103837,114253
103707,114164
103675,114169
103626,114147
103570,114117
103406,113992
103201,113883
103052,113815
102934,113760
102809,113680
102574,113578
102392,113445
102271,113389
102155,113343
102059,113311
101907,113208
101792,113122
101734,113114
101678,113144
101662,113096
101534,113023
101492,112990
101467,112989
101499,113034
101473,113028
101401,112955
101372,112921
101378,112956
101395,112988
101410,112966
101373,112952
101330,112930
101338,112947
101443,112975
101459,113003
101399,112966
101428,112927
101467,113019
101526,113063
101597,113091
101566,113049
101554,113016
101650,113084
101688,113173
101745,113157
101709,113138
101735,113139
101824,113209
101909,113250
101988,113321
101971,113260
101977,113275
102088,113350
102162,113392
102195,113419
102210,113379
102184,113399
102312,113473
102370,113518
102395,113482
102370,113477
102362,113429
102449,113522
102483,113573
102505,113532
102485,113540
102446,113482
102527,113540
102560,113606
102538,113563
102503,113533
102480,113551
102530,113557
102574,113589
102557,113543
102467,113520
102430,113459
102530,113557
102495,113564
102468,113517
102440,113482
102357,113448
102438,113491
102446,113532
102415,113470
102345,113420
102316,113424
102363,113450
102394,113468
102349,113449
102248,113358
102299,113399
102348,113463
102411,113431
102347,113467
102302,113356
102372,113435
102370,113478
102429,113467
102405,113459
102357,113468
102359,113438
102450,113486
102449,113510
102433,113493
102366,113448
102413,113453
102497,113542
102491,113498
102459,113492
102404,113442
102477,113491
102501,113558
102543,113537
102513,113553
102465,113476
102523,113514
102578,113595
102641,113562
102600,113567
102579,113534
102616,113583
102700,113624
102701,113646
102690,113586
102630,113587
102715,113594
102795,113686
102784,113636
102788,113651
102715,113616
102810,113666
102858,113730
102843,113663
102861,113671
102831,113716
102885,113706
102966,113773
102966,113751
102951,113703
102978,113701
103042,113802
103041,113790
103111,113827
103057,113799
103067,113746
103119,113838
103158,113847
103188,113853
103099,113822
103127,113781
103190,113844
103210,113889
103179,113862
103139,113816
103127,113799
103163,113845
103159,113858
103127,113815
102977,113751
102899,113643
102830,113666
102696,113626
102630,113506
102397,113417
102248,113292
102183,113318
102042,113243
101895,113155
101681,113023
101596,112958
101519,112953
101428,112917
101360,112884
101187,112751
101141,112706
101111,112743
101029,112703
101057,112683
100886,112641
100881,112583
100928,112666
100868,112616
100868,112627
100786,112570
100854,112573
100866,112678
100863,112626
100852,112628
100797,112597
100833,112591
100894,112663
100883,112665
100927,112630
100835,112640
100903,112610
101023,112719
100996,112702
101038,112713
101047,112678
101042,112733
101190,112822
101198,112835
101217,112795
101227,112808
101278,112826
101365,112925
101416,112931
101430,112912
101421,112927
101517,112928
101590,113033
101602,113041
101652,112999
101636,113044
101684,113016
101795,113141
101796,113129
101784,113100
101790,113117
101853,113120
101944,113207
101917,113165
101905,113151
101868,113146
101947,113184
101964,113217
101985,113196
101913,113169
101923,113155
101941,113185
101936,113177
101967,113206
101882,113140
101877,113089
101889,113172
101900,113166
101946,113147
101822,113127
101829,113065
101860,113135
101901,113155
101895,113176
101842,113095
101808,113098
101866,113124
101913,113204
101885,113124
101840,113105
101827,113103
101904,113160
101907,113162
101932,113141
101877,113136
101856,113076
101945,113174
101937,113207
101957,113167
101890,113111
101921,113123
101985,113147
102039,113228
101970,113184
101972,113137
102010,113194
102059,113216
102113,113268
102075,113223
102077,113208
102078,113218
102147,113275
102187,113337
102159,113252
102130,113244
102130,113233
102171,113291
102200,113303
102201,113298
102137,113268
102197,113249
102320,113350
102308,113384
102305,113341
102330,113332
102319,113329
102441,113409
102464,113462
102464,113391
102470,113416
102494,113421
102626,113488
102618,113539
102628,113495
102621,113478
102625,113495
102730,113582
102714,113579
102743,113535
102689,113549
102719,113515
102802,113610
102789,113648
102750,113562
102791,113539
102807,113631
102881,113646
102944,113688
102851,113610
102853,113575
102906,113653
102906,113669
102911,113637
102812,113552
102720,113509
102652,113527
102547,113449
102449,113381
102212,113231
102099,113126
101970,113160
101840,113042
101747,113002
101513,112884
101422,112814
101304,112778
101253,112784
101176,112710
101015,112612
100960,112536
100899,112564
100891,112581
100813,112535
100731,112458
100674,112465
100686,112432
100717,112487
100634,112453
100581,112390
100575,112415
100602,112420
100668,112489
100625,112419
100641,112387
100627,112423
100695,112475
100714,112511
100711,112512
100698,112447
100764,112521
100850,112553
100879,112591
100913,112572
100848,112545
100905,112577
100965,112649
101055,112663
101036,112676
101053,112654
101088,112680
101209,112736
101256,112796
101276,112795
101268,112771
101355,112819
101481,112874
101518,112916
101554,112932
101545,112910
101625,112941
101683,112989
101773,113054
101737,113005
101692,112985
101740,112993
101831,113070
101843,113054
101822,113046
101792,113015
101794,113036
101854,113086
101905,113072
101857,113017
101831,113034
101806,113018
101903,113078
101908,113125
101856,113018
101872,113042
101858,113083
101929,113106
101957,113158
101928,113061
101910,113069
101911,113086
101997,113139
101978,113142
101954,113089
101942,113062
101984,113099
102063,113147
102055,113158
101977,113119
101955,113089
102021,113142
102032,113168
102064,113144
101992,113142
101959,113079
102064,113163
102047,113186
102043,113143
102024,113135
102004,113104
102007,113107
102091,113164
102019,113165
102042,113123
102007,113154
102066,113153
102141,113219
102101,113176
102146,113181
102097,113179
102198,113184
102252,113274
102217,113235
102172,113225
102181,113227
102275,113297
102318,113303
102308,113296
102247,113262
102283,113250
102351,113299
102382,113310
102369,113372
102340,113265
102370,113326
102419,113355
102517,113395
102490,113428
102450,113343
102523,113391
102557,113426
102632,113464
102602,113491
102619,113422
102646,113454
102706,113468
102745,113541
102695,113522
102696,113444
102674,113503
102742,113503
102805,113531
102702,113528
102665,113449
102698,113474
102710,113478
102708,113473
102651,113456
102580,113361
102557,113400
102545,113377
102475,113365
102364,113285
102190,113199
102076,113108
102029,113126
101877,113038
101759,112897
101554,112836
101450,112738
101353,112768
101238,112684
101084,112595
100943,112476
100886,112506
100808,112466
100785,112417
100636,112379
100548,112308
100517,112254
100506,112300
100454,112293
100326,112216
100294,112200
100285,112173
100319,112235
100241,112180
100216,112138
100168,112134
100229,112118
100230,112213
100219,112154
100223,112143
100172,112144
100246,112141
100285,112196
100274,112230
100265,112152
100249,112165
100334,112203
100394,112268
100415,112243
100393,112265
100376,112219
100505,112303
100515,112350
100546,112300
100529,112318
100553,112285
100649,112410
100657,112399
100746,112413
100713,112409
100745,112399
100810,112522
100887,112538
100956,112519
100908,112474
100984,112510
101026,112614
101101,112619
101155,112662
101149,112602
101161,112646
101244,112739
101283,112734
101335,112723
101268,112703
101310,112686
101369,112769
101407,112757
101396,112756
101317,112720
101316,112673
101394,112793
101357,112759
101314,112720
101271,112678
101265,112643
101309,112749
101272,112696
101323,112707
101228,112681
101247,112625
101324,112743
101295,112723
101308,112720
101258,112667
101313,112695
101351,112746
101333,112734
101351,112736
101282,112683
101336,112692
101374,112777
101366,112732
101392,112745
101336,112701
101358,112700
101415,112811
101417,112763
101448,112746
101392,112736
101491,112752
101548,112847
101557,112845
101576,112846
101578,112817
101613,112856
101693,112942
101710,112904
101744,112931
101717,112907
101797,112958
101827,113004
101835,112980
101890,112981
101834,112981
101927,112999
102007,113115
102013,113047
101993,113053
102033,113045
102076,113047
102105,113134
102154,113151
102141,113093
102129,113112
102147,113136
102252,113207
102227,113205
102239,113167
102237,113175
102320,113195
102370,113288
102377,113268
102409,113269
102400,113258
102473,113311
102542,113362
102580,113372
102559,113331
102543,113375
102605,113358
102708,113432
102669,113432
102642,113346
102668,113395
102690,113407
102737,113450
102705,113438
102688,113357
102652,113395
102665,113387
102656,113413
102517,113299
102375,113207
102270,113172
102154,113091
102029,113052
101847,112960
101695,112846
101504,112770
101374,112745
101292,112669
101201,112588
100974,112451
100911,112407
100845,112440
100772,112376
100688,112355
100544,112229
100531,112201
100537,112269
100495,112288
100393,112180
100341,112176
100298,112127
100359,112157
100322,112195
100250,112089
100229,112100
100184,112082
100257,112123
100260,112156
100226,112061
100153,112053
100235,112070
100278,112153
100272,112138
100261,112109
100237,112077
100289,112123
100348,112161
100357,112196
100307,112113
100327,112102
100311,112166
100398,112164
100432,112237
100352,112147
100398,112149
100443,112215
100548,112239
100575,112287
100556,112249
100624,112273
100677,112354
100764,112384
100808,112423
100781,112398
100819,112400
100916,112457
100987,112543
101000,112491
101056,112512
101008,112512
101075,112508
101170,112608
101113,112590
101120,112535
101106,112559
101140,112544
101201,112605
101191,112598
101145,112548
101150,112548
101206,112591
101266,112655
101248,112615
101226,112597
101190,112571
101291,112598
101289,112688
101299,112618
101279,112629
101254,112592
101313,112643
101353,112655
101352,112677
101297,112628
101324,112653
101340,112683
101391,112691
101375,112674
101332,112618
101354,112622
101415,112729
101478,112705
101459,112746
101399,112647
101479,112696
101521,112790
101547,112753
101623,112819
101531,112734
101596,112775
101648,112867
101704,112862
101702,112851
101673,112853
101696,112843
101817,112918
101807,112926
101823,112946
101804,112878
101840,112921
101896,112969
101951,112997
101933,112997
101883,112898
101968,112965
101969,113045
102035,113015
102025,113046
101994,112957
102029,113026
102094,113086
102136,113096
102143,113074
102080,113031
102177,113059
102215,113162
102233,113139
102244,113144
102201,113057
102232,113136
102290,113170
102322,113206
102255,113106
102280,113133
102278,113182
102354,113184
102394,113212
102367,113195
102355,113156
102372,113203
102461,113267
102498,113241
102457,113249
102410,113200
102514,113239
102525,113327
102539,113275
102541,113294
102513,113215
102541,113299
102526,113261
102515,113256
102348,113191
102232,113094
102160,113060
102043,113024
101906,112932
101717,112801
101529,112716
101416,112632
101321,112603
101187,112544
100968,112361
100891,112327
100801,112345
100726,112274
100654,112252
100475,112159
100412,112095
100386,112141
100384,112113
100297,112067
100222,112042
100167,112022
100207,112030
100195,112047
100188,112020
100127,111971
100085,111958
100179,112020
100212,112030
100167,112007
100147,111977
100186,111996
100226,112050
100305,112096
100305,112083
100231,112057
100301,112062
100398,112116
100407,112148
100449,112169
100418,112103
100414,112133
100524,112214
100555,112208
100550,112210
100553,112205
100553,112219
100702,112282
100752,112308
100754,112370
100761,112273
100826,112374
100912,112396
100988,112456
101039,112472
101010,112440
101049,112491
101178,112599
101194,112559
101243,112558
101180,112559
101217,112553
101327,112665
101314,112621
101331,112606
101239,112596
101307,112600
101375,112686
101359,112647
101319,112622
101308,112584
101335,112615
101350,112687
101346,112658
101341,112584
101290,112600
101299,112587
101377,112668
101358,112639
101294,112592
101302,112557
101299,112616
101311,112600
101344,112630
101266,112606
101237,112532
101311,112607
101323,112607
101345,112631
101298,112621
101316,112576
101311,112635
101401,112696
101342,112633
101357,112589
101323,112630
101393,112618
101441,112717
101411,112681
101431,112632
101417,112654
101464,112661
101510,112739
101514,112737
101492,112702
101532,112696
101614,112754
101640,112791
101695,112801
101625,112788
101647,112777
101772,112870
101788,112867
101840,112874
101802,112896
101828,112837
101935,112950
101951,112941
101990,112932
101928,112954
101943,112939
102073,113013
102090,113023
102083,112999
102021,112997
102050,113014
102144,113052
102183,113097
102204,113067
102172,113050
102145,113045
102254,113076
102335,113163
102281,113114
102288,113097
102315,113128
102418,113153
102437,113238
102397,113163
102428,113151
102459,113185
102550,113261
102557,113269
102560,113268
102543,113167
102559,113261
102614,113280
102682,113335
102625,113323
102633,113251
102630,113304
102745,113315
102735,113359
102741,113356
102722,113310
102691,113345
102736,113357
102685,113302
102548,113262
102417,113090
102311,113069
102192,113089
102052,112955
101876,112863
101626,112705
101542,112651
101448,112679
101340,112546
101157,112484
100984,112347
100965,112372
100869,112357
100811,112299
100707,112237
100576,112156
100581,112190
100549,112186
100492,112172
100419,112086
100414,112047
100421,112127
100401,112104
100432,112121
100353,112088
100345,112028
100418,112115
100397,112109
100435,112131
100357,112083
100397,112065
100436,112151
100495,112155
100479,112163
100486,112118
100455,112104
100592,112163
100583,112259
100618,112212
100635,112219
100612,112209
100709,112236
100773,112321
100828,112307
100780,112307
100844,112283
100901,112387
100962,112438
100979,112442
101022,112405
101024,112429
101147,112515
101253,112540
101275,112584
101229,112511
101305,112560
101357,112655
101429,112642
101433,112674
101396,112580
101436,112631
101508,112689
101593,112706
101546,112740
101497,112639
101532,112704
101595,112748
101625,112753
101587,112747
101542,112671
101606,112690
101631,112724
101647,112776
101579,112746
101532,112646
101552,112690
101577,112724
101623,112744
101540,112726
101506,112631
101527,112686
101526,112683
101579,112707
101537,112671
101500,112660
101488,112675
101585,112749
101641,112740
101569,112721
101557,112667
101595,112731
101645,112717
101682,112805
101659,112720
101592,112741
101639,112723
101731,112824
101700,112770
101692,112743
101644,112766
101704,112750
101731,112823
101763,112848
101735,112786
101715,112733
101780,112816
101790,112851
101831,112839
101787,112848
101774,112766
101809,112845
101854,112869
101923,112909
101871,112913
101913,112854
101977,112949
102037,112955
102053,112985
102022,112953
102039,112923
102123,113002
102179,113061
102218,113045
102190,113031
102214,113042
102263,113115
102323,113112
102348,113162
102270,113083
102324,113077
102380,113165
102418,113140
102439,113199
102362,113119
102438,113156
102486,113201
102525,113225
102536,113238
102538,113217
102580,113214
102624,113304
102691,113293
102721,113335
102638,113234
102672,113303
102739,113358
102794,113402
102774,113340
102795,113312
102763,113354
102847,113374
102924,113437
102885,113398
102842,113353
102885,113403
102933,113412
102956,113459
102916,113406
102884,113378
102838,113364
102892,113357
102810,113384
102677,113259
102563,113170
102388,113126
102316,113056
102171,113029
101985,112874
101793,112792
101655,112690
101578,112684
101493,112608
101356,112557
101189,112459
101119,112425
101073,112437
101025,112368
100932,112341
100774,112219
100790,112255
100788,112307
100780,112242
100697,112228
100619,112142
100666,112193
100652,112277
100687,112221
100639,112175
100614,112138
100609,112210
100731,112251
100695,112278
100707,112202
100673,112233
100729,112252
100800,112293
100862,112343
100835,112330
100846,112261
100915,112354
100960,112399
101047,112410
100986,112413
100997,112365
101091,112435
101167,112518
101245,112507
101208,112516
101214,112492
101355,112566
101397,112656
101453,112621
101481,112652
101470,112643
101585,112720
101654,112792
101714,112767
101669,112767
101692,112735
101810,112817
101868,112870
101883,112878
101819,112824
101876,112837
101916,112886
101969,112948
101924,112903
101902,112836
101874,112893
101930,112883
101969,112943
101925,112898
101890,112822
101834,112883
101905,112862
101974,112916
101884,112876
101857,112812
101853,112833
101895,112876
101947,112912
101923,112871
101831,112822
101852,112867
101909,112916
101958,112912
101951,112911
101853,112833
101940,112855
101979,112940
101981,112893
102012,112935
101929,112886
101967,112882
102060,112974
102064,112965
102070,112962
101979,112923
102044,112933
102161,112985
102141,113054
102147,112971
102135,112989
102145,112978
102258,113066
102254,113080
102274,113036
102240,113064
102263,113038
102347,113128
102400,113132
102359,113100
102389,113082
102420,113134
102487,113188
102575,113232
102560,113210
102509,113189
102613,113239
102677,113303
102710,113277
102697,113311
102650,113245
102738,113316
102788,113381
102873,113333
102812,113349
102796,113291
102891,113399
102910,113447
102948,113438
102924,113391
102897,113390
102976,113470
103061,113469
103046,113500
103029,113448
102961,113461
103039,113451
103138,113527
103092,113515
103059,113457
103042,113480
103114,113496
103172,113558
103140,113533
103120,113470
103098,113494
103130,113551
103220,113572
103173,113556
103142,113506
103148,113492
103213,113574
103244,113598
103284,113577
103228,113576
103220,113512
103317,113641
103300,113629
103302,113613
103202,113558
103181,113528
103146,113513
103111,113472
102963,113389
102784,113269
102608,113199
102491,113154
102355,113077
102170,112949
101952,112843
101820,112775
101692,112729
101637,112708
101496,112597
101280,112504
101253,112481
101220,112469
101116,112426
101071,112389
100953,112310
100904,112301
100935,112323
100879,112334
100848,112248
100789,112230
100752,112219
100845,112273
100791,112275
100780,112281
100711,112186
100791,112252
100821,112314
100890,112284
100863,112301
100799,112248
100873,112300
100945,112373
100990,112381
100946,112345
100970,112347
101048,112383
101086,112456
101128,112432
101135,112457
101088,112389
101182,112453
101261,112540
101309,112536
101290,112535
101310,112537
101349,112569
101482,112622
101484,112683
101510,112608
101498,112622
101591,112686
101692,112739
101697,112730
101738,112721
101671,112769
101751,112754
101841,112852
101819,112778
101804,112800
101757,112780
101859,112798
101893,112879
101884,112827
101873,112825
101820,112809
101893,112822
101954,112868
101935,112848
101874,112817
101849,112820
101911,112831
101935,112870
101908,112867
101867,112774
101870,112814
101884,112839
101967,112850
101904,112893
101855,112782
101875,112830
101909,112837
101961,112863
101933,112868
101891,112806
101885,112792
101927,112862
102019,112871
101966,112890
101942,112858
101920,112800
102072,112929
102059,112947
102113,112955
102067,112915
102097,112922
102173,113022
102215,113012
102272,113041
102215,113012
102293,112988
102368,113121
102438,113139
102460,113091
102440,113100
102455,113142
102559,113166
102611,113236
102602,113190
102618,113169
102633,113255
102726,113270
102807,113338
102753,113250
102739,113255
102754,113293
102881,113333
102869,113392
102883,113326
102856,113306
102872,113374
103003,113419
103045,113452
103011,113424
102980,113384
103055,113469
103115,113491
103153,113489
103105,113480
103118,113431
103142,113527
103220,113514
103268,113543
103167,113525
103156,113466
103217,113557
103278,113594
103294,113569
103269,113523
103201,113497
103244,113535
103351,113582
103343,113618
103319,113571
103290,113557
103353,113623
103423,113645
103449,113623
103380,113636
103335,113577
103477,113656
103485,113709
103496,113656
103464,113660
103435,113620
103482,113683
103501,113701
103552,113693
103465,113684
103402,113597
103475,113674
103443,113679
103415,113617
103299,113568
103154,113456
103121,113464
103009,113410
102878,113305
102668,113195
102437,113085
102355,113028
102208,112973
102066,112879
101855,112745
101657,112647
101661,112664
101563,112669
101472,112537
101315,112479
101233,112426
101288,112463
101204,112457
101155,112368
101072,112341
101003,112341
101076,112378
101066,112392
101046,112336
100952,112307
100950,112270
101030,112389
101054,112349
101052,112312
100972,112314
101034,112325
101097,112414
101079,112405
101134,112410
101133,112414
101142,112394
101246,112494
101253,112496
101294,112482
101243,112481
101282,112460
101385,112562
101430,112595
101425,112584
101431,112555
101484,112621
101570,112645
101636,112713
101625,112652
101679,112657
101685,112768
101801,112764
101894,112845
101853,112769
101840,112781
101932,112827
101982,112926
102049,112873
102035,112877
102020,112888
102071,112880
102140,112938
102189,112965
102104,112924
102100,112915
102109,112929
102225,112979
102179,113012
102161,112898
102136,112920
102122,112896
102198,112984
102162,113003
102131,112888
102087,112894
102098,112896
102150,112949
102167,112941
102106,112914
102060,112858
102063,112910
102168,112952
102128,112956
102107,112866
102070,112915
102105,112885
102202,112962
102122,112974
102101,112878
102120,112911
102127,112910
102187,112945
102174,112957
102113,112889
102084,112921
102165,112934
102217,112974
102210,112951
102148,112945
102132,112895
102254,113028
102272,113008
102304,113013
102246,112989
102267,112989
102323,113034
102418,113055
102399,113095
102342,113003
102392,113045
102461,113106
102494,113137
102465,113140
102439,113046
102443,113103
102484,113112
102576,113147
102508,113166
102466,113063
102500,113124
102530,113144
102566,113164
102544,113148
102513,113096
102536,113145
102611,113147
102647,113190
102598,113159
102522,113147
102597,113140
102591,113189
102637,113167
102629,113137
102571,113116
102564,113128
102632,113143
102601,113188
102519,113075
102487,113031
102395,113065
102411,112999
102370,113016
102204,112874
102054,112784
101960,112744
101863,112672
101647,112571
101388,112404
101174,112239
100981,112185
100813,112034
100626,111913
100302,111770
100076,111560
99903,111518
99742,111396
99447,111243
99125,111061
98764,110815
98553,110692
98317,110643
97997,110417
97602,110147
97234,109926
96895,109798
96642,109585
96192,109278
95486,108807
94864,108051
93814,106822
92220,104937
89982,102564
86723,99573
82449,96044
78073,93562
90543,114850
95284,122074
92895,121171
87290,115560
79685,107094
71411,97433
64003,88104
57755,79999
52432,73232
48233,67449
44742,62775
41529,58518
38714,54756
36302,51489
34190,48889
32466,46592
31028,44391
29500,42410
28170,40494
26938,38773
25698,37054
24595,35517
23609,34084
22737,32950
22003,32054
21249,31025
20542,30006
19840,28879
19100,27816
18366,26702
17623,25574
16866,24410
16071,23211
15135,21853
14225,20407
13212,18941
12141,17348
11123,15818
10103,14303
9077,12791
8147,11395
7238,10054
6360,8773
5575,7552
4827,6493
4131,5455
3577,4583
3036,3861
2627,3234
2282,2809
2006,2406
1819,2109
1608,1909
1479,1695
1366,1600
1294,1436
1161,1369
1105,1281
1078,1211
1027,1171
1010,1127
938,1083
929,1060
931,1054
866,991
877,977
853,1022
850,957
859,968
822,943
812,938
808,982
803,914
785,927
823,955
763,938
768,922
771,894
815,936
769,891
797,918
771,890
770,880
794,938
747,884
765,876
766,911
753,886
760,870
764,899
770,889
728,860
758,901
755,853
748,896
738,882
763,894
753,893
761,863
764,906
738,911
767,897
765,917
737,857
740,887
775,887
733,886
751,863
747,879
752,892
769,885
752,890
767,870
731,861
772,909
776,916
729,876
722,895
765,927
760,884
756,880
771,920
743,889
769,888
759,896
747,913
739,883
787,874
728,861
764,885
774,878
754,914
749,865
774,891
733,895
737,846
789,912
708,892
738,859
781,914
727,871
747,896
752,874
748,880
781,874
734,907
740,844
776,896
707,853
754,846
761,888
720,852
761,858
