11111
0
0
0
0
0
0
0
0
0
0
0
0
0
0
0
0
0
0
0
0
0
0
0
0
0
0
0
0
0
0
0
0
0
0
0
0
0
0
0
0
0
0
0
0
0
0
0
0
0
0
0
0
0
0
0
0
0
0
0
0
0
0
0
0
0
0
0
0
0
0
0
0
0
0
0
0
0
0
0
0
0
0
0
0
0
0
0
0
0
0
0
0
0
0
0
0
0
0
0
0
0
0
0
0
0
0
0
0
0
0
0
0
0
0
0
0
0
0
0
0
0
0
0
0
0
0
0
0
0
0
0
0
0
0
0
0
0
0
0
0
0
0
0
0
0
0
0
0
0
0
0
0
0
0
0
0
0
0
0
0
0
0
0
0
0
0
0
0
0
0
0
0
0
0
0
0
0
0
0
0
0
0
0
0
0
0
0
0
0
0
0
0
0
0
0
0
0
0
0
0
0
0
0
0
0
0
0
0
0
0
0
0
0
0
0
0
0
0
0
0
0
0
0
0
0
0
0
0
0
0
0
0
0
0
0
0
0
0
0
0
0
0
0
0
0
0
0
0
0
0
0
0
0
0
0
0
0
0
0
0
0
0
0
0
0
0
0
0
0
0
0
0
0
0
0
0
0
0
0
0
0
0
0
0
0
0
0
0
0
0
0
0
0
0
0
0
0
0
0
0
0
0
0
0
0
0
0
0
0
0
0
0
0
0
0
0
0
0
0
0
0
0
0
0
0
0
0
0
0
0
0
0
0
0
0
0
0
0
0
0
0
0
0
0
0
0
0
0
0
0
0
0
0
0
0
0
0
0
0
0
0
0
0
0
0
0
0
0
0
0
0
0
0
0
0
0
0
0
0
0
0
0
0
0
0
0
0
0
0
0
0
0
0
0
0
0
0
0
0
0
0
0
0
0
0
0
0
0
0
0
0
0
0
0
0
0
0
0
0
0
0
0
0
0
0
0
0
0
0
0
0
0
0
0
0
0
0
0
0
0
0
0
0
0
0
0
0
0
0
0
0
0
0
0
0
0
0
0
0
0
0
0
0
0
0
0
0
0
0
0
0
0
0
0
0
0
0
0
0
0
0
0
0
0
0
0
0
0
0
0
0
0
0
0
0
0
0
0
0
0
0
0
0
0
0
0
0
0
0
0
0
0
0
0
0
0
0
0
0
0
0
0
0
0
0
0
0
0
0
0
0
0
0
0
0
0
0
0
0
0
0
0
0
0
0
0
0
0
0
0
0
0
0
0
0
0
0
0
0
0
0
0
0
0
0
0
0
0
0
0
0
0
0
0
0
0
0
0
0
0
0
0
0
0
0
0
0
0
0
0
0
0
0
0
0
0
0
0
0
0
0
0
0
0
0
0
0
0
0
0
0
0
0
0
0
0
0
0
0
0
0
0
0
0
0
0
0
0
0
0
0
0
0
0
0
0
0
0
0
0
0
0
0
0
0
0
0
0
0
0
0
0
0
0
0
0
0
0
0
0
0
0
0
0
0
0
0
0
0
0
0
0
0
0
0
0
0
0
0
0
0
0
0
0
0
0
0
0
0
0
0
0
0
0
0
0
0
0
0
0
0
0
0
0
0
0
0
0
0
0
0
0
0
0
0
0
0
0
0
0
0
0
0
0
0
0
0
0
0
0
0
0
0
0
0
0
0
0
0
0
0
0
0
0
0
0
0
0
0
0
0
0
0
0
0
0
0
0
0
0
0
0
0
0
0
0
0
0
0
0
0
0
0
0
0
0
0
0
0
0
0
0
0
0
0
0
0
0
0
0
0
0
0
0
0
0
0
0
0
0
0
0
0
0
0
0
0
0
0
0
0
0
0
0
0
0
0
0
0
0
0
0
0
0
0
0
0
0
0
0
0
0
0
0
0
0
0
0
0
0
0
0
0
0
0
0
0
0
0
0
0
0
0
0
0
0
0
0
0
0
0
0
0
0
0
0
0
0
0
0
0
0
0
0
0
0
0
0
0
0
0
0
0
0
0
0
0
0
0
0
0
0
0
0
0
0
0
0
0
0
0
0
0
0
0
0
0
0
0
0
0
0
0
0
0
0
0
0
0
0
0
0
0
0
0
0
0
0
0
0
0
0
0
0
0
0
0
0
0
0
0
0
0
0
0
0
0
0
0
0
0
0
0
0
0
0
0
0
0
0
0
0
0
0
0
0
0
0
0
0
0
0
0
0
0
0
0
0
0
0
0
0
0
0
0
0
0
0
0
0
0
0
0
0
0
0
0
0
0
0
0
0
0
0
0
0
0
0
0
0
0
0
0
0
0
0
0
0
0
0
0
0
0
0
0
0
0
0
0
0
0
0
0
0
0
0
0
0
0
0
0
0
0
0
0
0
0
0
0
0
0
0
0
0
0
0
0
0
0
0
0
0
0
0
0
0
0
0
0
0
0
0
0
0
0
0
0
0
0
0
0
0
0
0
0
0
0
0
0
0
0
0
0
0
0
0
0
0
0
0
0
0
0
0
0
0
0
0
0
0
0
0
0
0
0
0
0
0
0
0
0
0
0
0
0
0
0
0
0
0
0
0
0
0
0
0
0
0
0
0
0
0
0
0
0
0
0
0
0
0
0
0
0
0
0
0
0
0
0
0
0
0
0
0
0
0
0
0
0
0
0
0
0
0
0
0
0
0
0
0
0
0
0
0
0
0
0
0
0
0
0
0
0
0
0
0
0
0
0
0
0
0
0
0
0
0
0
0
0
0
0
0
0
0
0
0
0
0
0
0
0
0
0
0
0
0
0
0
0
0
0
0
0
0
0
0
0
0
0
0
0
0
0
0
0
0
0
0
0
0
0
0
0
0
0
0
0
0
0
0
0
0
0
0
0
0
0
0
0
0
0
0
0
0
0
0
0
0
0
0
0
0
0
0
0
0
0
0
0
0
0
0
0
0
0
0
0
0
0
0
0
0
0
0
0
0
0
0
0
0
0
0
0
0
0
0
0
0
0
0
0
0
0
0
0
0
0
0
0
0
0
0
0
0
0
0
0
0
0
0
0
0
0
0
0
0
0
0
0
0
0
0
0
0
0
0
0
0
0
0
0
0
0
0
0
0
0
0
0
0
0
0
0
0
0
0
0
0
0
0
0
0
0
0
0
0
0
0
0
0
0
0
0
0
0
0
0
0
0
0
0
0
0
0
0
0
0
0
0
0
0
0
0
0
0
0
0
0
0
0
0
0
0
0
0
0
0
0
0
0
0
0
0
0
0
0
0
0
0
0
0
0
0
0
0
0
0
0
0
0
0
0
0
0
0
0
0
0
0
0
0
0
0
0
0
0
0
0
0
0
0
0
0
0
0
0
0
0
0
0
0
0
0
0
0
0
0
0
0
0
0
0
0
0
0
0
0
0
0
0
0
0
0
0
0
0
0
0
0
0
0
0
0
0
0
0
0
0
0
0
0
0
0
0
0
0
0
0
0
0
0
0
0
0
0
0
0
0
0
0
0
0
0
0
0
0
0
0
0
0
0
0
0
0
0
0
0
0
0
0
0
0
0
0
0
0
0
0
0
0
0
0
0
0
0
0
0
0
0
0
0
0
0
0
0
0
0
0
0
0
0
0
0
0
0
0
0
0
0
0
0
0
0
0
0
0
0
0
0
0
0
0
0
0
0
0
0
0
0
0
0
0
0
0
0
0
0
0
0
0
0
0
0
0
0
0
0
0
0
0
0
0
0
0
0
0
0
0
0
0
0
0
0
0
0
0
0
0
0
0
0
0
0
0
0
0
0
0
0
0
0
0
0
0
0
0
0
0
0
0
0
0
0
0
0
0
0
0
0
0
0
0
0
0
0
0
0
0
0
0
0
0
0
0
0
0
0
0
0
0
0
0
0
0
0
0
0
0
0
0
0
0
0
0
0
0
0
0
0
0
0
0
0
0
0
0
0
0
0
0
0
0
0
0
0
0
0
0
0
0
0
0
0
0
0
0
0
0
0
0
0
0
0
0
0
0
0
0
0
0
0
0
0
0
0
0
0
0
0
0
0
0
0
0
0
0
0
0
0
0
0
0
0
0
0
0
0
0
0
0
0
0
0
0
0
0
0
0
0
0
0
0
0
0
0
0
0
0
0
0
0
0
0
0
0
0
0
0
0
0
0
0
0
0
0
0
0
0
0
0
0
0
0
0
0
0
0
0
0
0
0
0
0
0
0
0
0
0
0
0
0
0
0
0
0
0
0
0
0
0
0
0
0
0
0
0
0
0
0
0
0
0
0
0
0
0
0
0
0
0
0
0
0
0
0
0
0
0
0
0
0
0
0
0
0
0
0
0
0
0
0
0
0
0
0
0
0
0
0
0
0
0
0
0
0
0
0
0
0
0
0
0
0
0
0
0
0
0
0
0
0
0
0
0
0
0
0
0
0
0
0
0
0
0
0
0
0
0
0
0
0
0
0
0
0
0
0
0
0
0
0
0
0
0
0
0
0
0
0
0
0
0
0
0
0
0
0
0
0
0
0
0
0
0
0
0
0
0
0
0
0
0
0
0
0
0
0
0
0
0
0
0
0
0
0
0
0
0
0
0
0
0
0
0
0
0
0
0
0
0
0
0
0
0
0
0
0
0
0
0
0
0
0
0
0
0
0
0
0
0
0
0
0
0
0
0
0
0
0
0
0
0
0
0
0
0
0
0
0
0
0
0
0
0
0
0
0
0
0
0
0
0
0
0
0
0
0
0
0
0
0
0
0
0
0
0
0
0
0
0
0
0
0
0
0
0
0
0
0
0
0
0
0
0
0
0
0
0
0
0
0
0
0
0
0
0
0
0
0
0
0
0
0
0
0
0
0
0
0
0
0
0
0
0
0
0
0
0
0
0
0
0
0
0
0
0
0
0
0
0
0
0
0
0
0
0
0
0
0
0
0
0
0
0
0
0
0
0
0
0
0
0
0
0
0
0
0
-1
0
-1
0
-1
0
-1
0
-1
1
-13
-19
-19
-23
-24
-27
-32
-36
-42
-46
-50
-58
-62
-68
-73
-78
-84
-89
-95
-103
-108
-113
-119
-126
-132
-138
-142
-149
-154
-161
-167
-172
-180
-184
-190
-195
-201
-207
-210
-217
-224
-230
-235
-242
-248
-252
-259
-264
-270
-275
-279
-285
-292
-297
-302
-307
-315
-316
-323
-329
-334
-339
-345
-353
-356
-364
-366
-373
-378
-383
-388
-392
-397
-404
-408
-413
-420
-425
-429
-434
-437
-444
-450
-455
-461
-464
-471
-474
-480
-483
-489
-494
-498
-504
-509
-513
-519
-524
-528
-533
-538
-542
-548
-552
-557
-562
-567
-571
-575
-580
-585
-589
-594
-599
-604
-610
-613
-617
-622
-627
-631
-636
-641
-647
-651
-655
-660
-663
-668
-672
-677
-680
-685
-691
-694
-698
-703
-708
-711
-715
-718
-725
-728
-733
-739
-743
-745
-751
-755
-758
-762
-766
-773
-776
-777
-783
-787
-790
-794
-800
-803
-808
-813
-816
-820
-825
-826
-832
-837
-840
-844
-848
-854
-856
-861
-866
-869
-871
-875
-878
-883
-888
-892
-895
-898
-900
-907
-910
-913
-918
-921
-925
-929
-931
-936
-939
-944
-947
-950
-953
-959
-961
-965
-968
-973
-975
-980
-984
-985
-990
-994
-997
-1000
-1005
-1007
-1011
-1014
-1017
-1020
-1024
-1028
-1032
-1034
-1037
-1041
-1045
-1049
-1052
-1054
-1057
-1062
-1063
-1069
-1073
-1074
-1080
-1080
-1084
-1088
-1091
-1095
-1097
-1101
-1104
-1108
-1111
-1113
-1115
-1120
-1123
-1127
-1128
-1132
-1134
-1138
-1141
-1145
-1147
-1150
-1152
-1156
-1158
-1162
-1165
-1168
-1170
-1173
-1177
-1179
-1185
-1186
-1188
-1192
-1195
-1198
-1200
-1204
-1204
-1209
-1211
-1215
-1218
-1219
-1222
-1225
-1229
-1231
-1233
-1236
-1241
-1242
-1245
-1248
-1251
-1252
-1254
-1257
-1260
-1264
-1265
-1269
-1272
-1275
-1277
-1279
-1282
-1283
-1287
-1289
-1291
-1294
-1297
-1301
-1302
-1304
-1307
-1311
-1312
-1315
-1316
-1319
-1321
-1324
-1326
-1328
-1332
-1334
-1336
-1338
-1342
-1344
-1347
-1349
-1353
-1353
-1355
-1357
-1361
-1362
-1365
-1367
-1367
-1371
-1374
-1376
-1379
-1380
-1382
-1385
-1387
-1392
-1392
-1394
-1397
-1397
-1399
-1402
-1404
-1406
-1409
-1409
-1414
-1414
-1418
-1419
-1421
-1424
-1423
-1426
-1430
-1432
-1433
-1437
-1438
-1441
-1443
-1444
-1445
-1448
-1450
-1451
-1455
-1456
-1459
-1460
-1463
-1464
-1465
-1467
-1471
-1473
-1473
-1475
-1479
-1479@
-1482
-1483
-1483
-1488
-1488
-1489
-1492
-1495
-1496
-1498
-1500
-1500
-1504
-1505
-1506
-1509
-1512
-1512
-1513
-1516
-1518
-1518
-1521
-1522
-1524
-1527
-1528
-1529
-1529
-1531
-1534
-1535
-1539
-1540
-1542
-1543
-1544
-1547
-1549
-1550
-1551
-1552
-1554
-1556
-1557
-1559
-1561
-1562
-1563
-1566
-1567
-1568
-1571
-1572
-1574
-1576
-1577
-1577
-1579
-1582
-1582
-1583
-1586
-1586
-1588
-1589
-1591
-1593
-1592
-1596
-1596
-1598
-1599
-1601
-1603
-1605
-1605
-1604
-1609
-1609
-1611
-1610
-1612
-1615
-1616
-1616
-1616
-1618
-1621
-1622
-1625
-1626
-1626
-1628
-1628
-1631@
-1633
-1631
-1634
-1634
-1637
-1636
-1638
-1639
-1640
-1642
-1643
-1645
-1646
-1647
-1649
-1648
-1650
-1651
-1653
-1654
-1656
-1656
-1658
-1659
-1661
-1662
-1661
-1662
-1664
-1665
-1666
-1667
-1670
-1671
-1670
-1671
-1673
-1673
-1674
-1676
-1678
-1677
-1678
-1680
-1683
-1683
-1684
-1686
-1687
-1687
-1686
-1688
-1689
-1690
-1692
-1692
-1693
-1694
-1695
-1696
-1697
-1698
-1699
-1700
-1702
-1703
-1703
-1705
-1705
-1706
-1706
-1707
-1708
-1709
-1709
-1710
-1711
-1712
-1713
-1715
-1716
-1714
-1716
-1718
-1716
-1717
-1721
-1721
-1722
-1722
-1723
-1723
-1724
-1725
-1727
-1728@
-1726
-1729
-1728
-1731
-1730
-1729
-1733
-1734
-1735
-1736
-1738
-1737
-1739
-1736
-1738
-1739
-1739
-1741
-1742
-1743
-1742
-1744
-1745
-1745
-1746
-1744
-1747
-1747
-1750
-1750
-1747
-1751
-1754
-1752
-1752
-1753
-1752
-1753
-1753
-1755
-1756
-1756
-1757
-1756
-1759
-1759
-1761
-1760
-1762
-1762
-1761
-1762
-1762
-1763
-1765
-1764
-1765
-1764
-1767
-1767
-1767
-1768
-1768
-1770
-1769
-1771
-1770
-1770
-1772
-1771
-1773
-1773
-1773
-1773
-1773
-1775
-1774
-1776
-1778
-1775
-1775
-1778
-1777
-1778
-1779
-1779
-1781
-1779
-1780
-1778
-1779
-1781
-1782
-1782
-1783
-1782@
-1781
-1784
-1784
-1783
-1784
-1785
-1784
-1785
-1785
-1785
-1787
-1787
-1786
-1786
-1787
-1787
-1789
-1788
-1789
-1790
-1790
-1789
-1791
-1790
-1792
-1790
-1792
-1794
-1791
-1792
-1792
-1792
-1794
-1794
-1794
-1795
-1794
-1792
-1794
-1795
-1796
-1796
-1796
-1798
-1798
-1796
-1798
-1798
-1797
-1796
-1798
-1798
-1799
-1799
-1799
-1798
-1797
-1800
-1798
-1799
-1799
-1801
-1801
-1800
-1801
-1800
-1802
-1802
-1801
-1799
-1802
-1801
-1803
-1802
-1801
-1801
-1803
-1803
-1801
-1804
-1803
-1803
-1803
-1802
-1804
-1804
-1803
-1804
-1803
-1804
-1803
-1803
-1803
-1804
-1804
-1803@
-1804
-1805
-1805
-1802
-1804
-1803
-1804
-1803
-1804
-1804
-1803
-1804
-1803
-1804
-1804
-1804
-1805
-1804
-1802
-1805
-1804
-1804
-1805
-1805
-1806
-1803
-1803
-1804
-1805
-1805
-1804
-1804
-1804
-1804
-1803
-1804
-1804
-1804
-1805
-1803
-1805
-1806
-1804
-1803
-1803
-1804
-1805
-1805
-1805
-1805
-1805
-1804
-1805
-1802
-1804
-1804
-1803
-1804
-1801
-1803
-1804
-1803
-1803
-1803
-1803
-1803
-1802
-1802
-1802
-1802
-1802
-1801
-1801
-1802
-1801
-1802
-1801
-1802
-1800
-1800
-1801
-1801
-1799
-1799
-1799
-1799
-1801
-1799
-1799
-1799
-1799
-1797
-1798
-1796
-1799
-1797@
-1799
-1798
-1796
-1798
-1797
-1796
-1797
-1795
-1797
-1796
-1797
-1797
-1796
-1796
-1796
-1794
-1794
-1794
-1793
-1795
-1794
-1794
-1794
-1794
-1795
-1793
-1793
-1793
-1794
-1792
-1791
-1791
-1791
-1791
-1791
-1792
-1791
-1791
-1791
-1790
-1789
-1789
-1789
-1789
-1790
-1789
-1788
-1787
-1787
-1788
-1788
-1786
-1787
-1788
-1786
-1785
-1785
-1784
-1785
-1785
-1783
-1784
-1784
-1785
-1782
-1782
-1782
-1782
-1782
-1781
-1780
-1779
-1781
-1781
-1779
-1779
-1778
-1778
-1778
-1779
-1778
-1776
-1777
-1775
-1776
-1774
-1775
-1776
-1774
-1773
-1774
-1775
-1773
-1773
-1772
-1774@
-1773
-1773
-1771
-1771
-1772
-1770
-1770
-1768
-1771
-1769
-1768
-1767
-1767
-1766
-1767
-1767
-1766
-1767
-1763
-1765
-1765
-1765
-1764
-1763
-1762
-1762
-1761
-1763
-1763
-1761
-1762
-1758
-1761
-1759
-1758
-1760
-1759
-1757
-1755
-1757
-1755
-1758
-1756
-1755
-1755
-1754
-1756
-1754
-1753
-1754
-1752
-1751
-1753
-1752
-1749
-1751
-1752
-1751
-1749
-1749
-1749
-1748
-1747
-1748
-1747
-1747
-1745
-1744
-1746
-1744
-1744
-1744
-1743
-1741
-1742
-1741
-1743
-1741
-1739
-1741
-1740
-1738
-1738
-1739
-1738
-1736
-1736
-1738
-1735
-1733
-1735
-1732
-1734
-1730
-1733
-1733@
-1732
-1731
-1728
-1728
-1729
-1728
-1727
-1727
-1727
-1727
-1725
-1726
-1725
-1723
-1722
-1721
-1722
-1723
-1722
-1720
-1719
-1721
-1720
-1720
-1719
-1718
-1716
-1718
-1717
-1715
-1716
-1712
-1714
-1712
-1712
-1712
-1710
-1710
-1711
-1711
-1709
-1707
-1708
-1707
-1707
-1706
-1705
-1707
-1705
-1705
-1705
-1704
-1702
-1703
-1699
-1700
-1699
-1700
-1701
-1698
-1697
-1697
-1697
-1695
-1697
-1696
-1696
-1694
-1694
-1691
-1693
-1691
-1690
-1691
-1691
-1689
-1687
-1687
-1688
-1687
-1687
-1686
-1685
-1685
-1684
-1683
-1683
-1684
-1683
-1681
-1682
-1679
-1678
-1678
-1679
-1679@
-1677
-1676
-1675
-1676
-1675
-1674
-1673
-1672
-1672
-1672
-1672
-1671
-1672
-1668
-1669
-1669
-1667
-1666
-1666
-1665
-1665
-1663
-1664
-1663
-1661
-1661
-1660
-1660
-1660
-1658
-1658
-1658
-1656
-1657
-1655
-1654
-1654
-1655
-1654
-1653
-1652
-1651
-1651
-1650
-1651
-1651
-1649
-1649
-1648
-1648
-1645
-1645
-1646
-1645
-1644
-1642
-1641
-1640
-1642
-1639
-1639
-1639
-1639
-1638
-1637
-1637
-1638
-1637
-1635
-1634
-1633
-1633
-1630
-1630
-1629
-1629
-1630
-1630
-1626
-1627
-1628
-1627
-1627
-1624
-1624
-1624
-1624
-1623
-1620
-1621
-1620
-1620
-1620
-1619
-1618
-1617@
-1617
-1615
-1615
-1614
-1612
-1611
-1614
-1612
-1610
-1608
-1609
-1609
-1608
-1607
-1605
-1607
-1603
-1605
-1603
-1603
-1602
-1602
-1603
-1600
-1599
-1600
-1599
-1597
-1599
-1596
-1596
-1594
-1595
-1593
-1592
-1592
-1591
-1589
-1590
-1588
-1590
-1588
-1588
-1587
-1585
-1586
-1585
-1583
-1581
-1582
-1582
-1579
-1580
-1578
-1577
-1578
-1578
-1576
-1576
-1575
-1574
-1575
-1572
-1571
-1571
-1571
-1570
-1570
-1567
-1566
-1567
-1566
-1567
-1564
-1564
-1564
-1563
-1562
-1562
-1563
-1560
-1559
-1560
-1557
-1557
-1556
-1557
-1555
-1554
-1554
-1552
-1550
-1550
-1550
-1549
-1548@
-1548
-1547
-1547
-1547
-1546
-1545
-1544
-1544
-1541
-1542
-1542
-1540
-1539
-1538
-1539
-1537
-1537
-1534
-1535
-1533
-1535
-1534
-1531
-1531
-1531
-1532
-1529
-1530
-1528
-1527
-1527
-1526
-1525
-1525
-1524
-1523
-1523
-1522
-1521
-1520
-1520
-1518
-1520
-1518
-1515
-1516
-1516
-1513
-1514
-1513
-1511
-1512
-1510
-1509
-1508
-1506
-1507
-1506
-1505
-1505
-1503
-1503
-1503
-1502
-1499
-1501
-1498
-1497
-1497
-1498
-1496
-1495
-1495
-1494
-1493
-1491
-1490
-1490
-1489
-1490
-1490
-1488
-1487
-1487
-1486
-1486
-1485
-1484
-1485
-1483
-1484
-1482
-1482
-1479
-1478
-1478@
-1477
-1477
-1475
-1475
-1473
-1473
-1473
-1472
-1472
-1472
-1469
-1472
-1469
-1467
-1466
-1467
-1465
-1464
-1463
-1464
-1462
-1462
-1461
-1461
-1459
-1457
-1458
-1459
-1456
-1456
-1455
-1452
-1452
-1451
-1453
-1451
-1450
-1450
-1449
-1450
-1445
-1447
-1447
-1445
-1446
-1443
-1442
-1441
-1439
-1441
-1438
-1439
-1438
-1437
-1436
-1438
-1433
-1435
-1433
-1432
-1432
-1431
-1431
-1430
-1429
-1428
-1425
-1426
-1424
-1424
-1423
-1423
-1422
-1419
-1421
-1419
-1419
-1419
-1415
-1416
-1415
-1417
-1415
-1413
-1413
-1411
-1411
-1409
-1409
-1408
-1407
-1409
-1408
-1407
-1404
-1402@
-1403
-1403
-1402
-1401
-1401
-1399
-1398
-1399
-1397
-1397
-1394
-1395
-1394
-1394
-1391
-1392
-1391
-1390
-1391
-1388
-1389
-1387
-1388
-1386
-1385
-1385
-1384
-1383
-1382
-1381
-1380
-1379
-1378
-1379
-1378
-1375
-1377
-1376
-1374
-1375
-1372
-1373
-1369
-1371
-1369
-1368
-1368
-1369
-1366
-1366
-1365
-1364
-1364
-1361
-1361
-1360
-1359
-1358
-1359
-1357
-1357
-1357
-1355
-1356
-1353
-1354
-1354
-1351
-1350
-1350
-1349
-1349
-1346
-1347
-1346
-1345
-1345
-1345
-1343
-1342
-1342
-1342
-1339
-1339
-1340
-1338
-1337
-1336
-1337
-1335
-1335
-1332
-1332
-1331
-1330
-1330@
-1331
-1329
-1327
-1328
-1326
-1327
-1325
-1325
-1323
-1324
-1321
-1322
-1321
-1320
-1319
-1317
-1317
-1316
-1315
-1315
-1314
-1315
-1313
-1312
-1310
-1311
-1310
-1310
-1309
-1306
-1306
-1305
-1304
-1304
-1303
-1303
-1302
-1302
-1300
-1299
-1300
-1298
-1297
-1296
-1297
-1296
-1295
-1294
-1294
-1291
-1290
-1289
-1290
-1288
-1287
-1288
-1286
-1287
-1287
-1286
-1282
-1283
-1283
-1282
-1280
-1280
-1280
-1278
-1279
-1276
-1276
-1274
-1275
-1274
-1272
-1274
-1272
-1270
-1269
-1270
-1268
-1269
-1267
-1265
-1266
-1264
-1263
-1262
-1263
-1261
-1260
-1259
-1260
-1259
-1257
-1258@
-1256
-1256
-1255
-1252
-1250
-1253
-1253
-1249
-1249
-1250
-1249
-1249
-1247
-1246
-1245
-1244
-1245
-1242
-1243
-1241
-1239
-1240
-1238
-1239
-1238
-1237
-1237
-1238
-1235
-1234
-1234
-1232
-1232
-1230
-1231
-1229
-1229
-1227
-1227
-1228
-1227
-1224
-1226
-1223
-1223
-1223
-1222
-1221
-1220
-1221
-1218
-1216
-1217
-1216
-1215
-1215
-1216
-1213
-1212
-1211
-1211
-1212
-1210
-1209
-1207
-1208
-1206
-1204
-1205
-1204
-1203
-1203
-1201
-1202
-1200
-1199
-1198
-1201
-1198
-1197
-1195
-1195
-1194
-1193
-1190
-1191
-1191
-1190
-1190
-1189
-1188
-1186
-1187
-1185
-1184
-1185@
-1185
-1182
-1182
-1181
-1181
-1179
-1179
-1177
-1177
-1178
-1175
-1175
-1174
-1172
-1173
-1170
-1171
-1171
-1170
-1170
-1167
-1168
-1167
-1166
-1165
-1165
-1163
-1163
-1162
-1164
-1162
-1159
-1159
-1159
-1158
-1158
-1156
-1156
-1154
-1155
-1154
-1153
-1152
-1151
-1151
-1149
-1149
-1148
-1148
-1148
-1146
-1146
-1144
-1143
-1143
-1142
-1140
-1142
-1139
-1141
-1139
-1137
-1137
-1136
-1138
-1134
-1133
-1133
-1133
-1131
-1129
-1129
-1130
-1129
-1129
-1127
-1127
-1126
-1125
-1125
-1122
-1123
-1122
-1122
-1121
-1120
-1119
-1119
-1119
-1118
-1117
-1117
-1114
-1114
-1114
-1115@
-1113
-1111
-1112
-1110
-1109
-1109
-1108
-1106
-1107
-1106
-1104
-1105
-1103
-1103
-1103
-1102
-1101
-1101
-1100
-1098
-1099
-1098
-1097
-1097
-1094
-1095
-1093
-1093
-1092
-1091
-1091
-1090
-1089
-1089
-1088
-1087
-1087
-1085
-1084
-1085
-1083
-1081
-1084
-1081
-1080
-1079
-1080
-1078
-1078
-1077
-1076
-1075
-1074
-1074
-1072
-1071
-1071
-1072
-1070
-1070
-1069
-1067
-1067
-1064
-1067
-1066
-1064
-1064
-1064
-1061
-1061
-1062
-1059
-1060
-1060
-1058
-1056
-1056
-1056
-1056
-1055
-1055
-1054
-1053
-1051
-1051
-1050
-1051
-1049
-1049
-1048
-1046
-1046
-1045
-1046
-1044@
-1043
-1042
-1041
-1041
-1041
-1038
-1040
-1038
-1037
-1036
-1036
-1036
-1034
-1036
-1034
-1034
-1032
-1031
-1030
-1030
-1032
-1030
-1028
-1026
-1026
-1023
-1025
-1024
-1024
-1023
-1023
-1023
-1021
-1021
-1020
-1019
-1018
-1017
-1018
-1015
-1016
-1017
-1015
-1014
-1013
-1011
-1011
-1010
-1010
-1010
-1010
-1008
-1009
-1009
-1006
-1007
-1005
-1004
-1004
-1004
-1004
-1003
-1001
-1001
-999
-1000
-998
-997
-997
-996
-996
-993
-993
-994
-991
-992
-991
-988
-989
-988
-988
-987
-986
-987
-985
-985
-985
-984
-984
-981
-982
-982
-979
-980
-979
-980
-979
-977
-977
-976
-975
-976
-974
-972
-971
-972
-970
-970
-971
-967
-968
-969
-967
-967
-965
-965
-963
-965
-964
-962
-962
-961
-962
-961
-960
-960
-957
-958
-958
-957
-956
-956
-954
-954
-953
-951
-951
-951
-951
-950
-949
-948
-948
-947
-947
-945
-947
-946
-945
-944
-942
-942
-942
-941
-941
-940
-939
-938
-937
-936
-937
-934
-934
-935
-933
-934
-931
-930
-930
-931
-930
-928
-930
-928
-925
-925
-927
-926
-925
-925
-923
-923
-922
-921
-920
-918
-919
-917
-917
-916
-918
-914
-914
-915
-914
-914
-911
-911
-911
-911
-911
-910
-910
-906
-907
-907
-905
-905
-905
-904
-904
-902
-903
-902
-901
-901
-900
-899
-898
-896
-897
-896
-896
-895
-894
-895
-894
-894
-893
-893
-892
-889
-890
-887
-888
-887
-889
-887
-886
-882
-884
-886
-883
-883
-882
-882
-880
-878
-880
-878
-877
-877
-877
-875
-874
-875
-875
-872
-874
-873
-871
-874
-869
-871
-870
-870
-868
-868
-867
-865
-867
-864
-863
-864
-862
-861
-862
-861
-861
-860
-858
-857
-859
-858
-858
-857
-856
-855
-854
-854
-855
-854
-853
-851
-852
-851
-850
-850
-850
-848
-846
-847
-846
-845
-845
-845
-844
-843
-843
-843
-842
-841
-840
-840
-838
-838
-838
-837
-837
-836
-834
-834
-836
-835
-833
-831
-832
-831
-832
-832
-829
-829
-829
-828
-828
-829
-827
-824
-823
-827
-823
-822
-823
-823
-820
-820
-820
-821
-819
-819
-816
-818
-816
-817
-815
-815
-813
-814
-813
-812
-813
-813
-812
-809
-810
-808
-808
-808
-806
-806
-808
-806
-807
-804
-804
-803
-801
-803
-802
-801
-800
-799
-799
-799
-797
-798
-797
-798
-795
-793
-793
-794
-794
-794
-794
-791
-792
-790
-790
-788
-787
-789
-787
-787
-785
-785
-785
-786
-783
-783
-783
-782
-783
-781
-781
-780
-779
-779
-777
-777
-776
-777
-775
-774
-774
-773
-772
-773
-772
-772
-772
-770
-770
-770
-769
-769
-768
-769
-768
-766
-766
-765
-766
-763
-763
-762
-761
-763
-762
-760
-759
-758
-759
-758
-758
-759
-757
-755
-755
-754
-753
-754
-753
-753
-752
-751
-750
-751
-751
-751
-750
-748
-747
-747
-747
-746
-746
-745
-744
-743
-743
-743
-743
-743
-742
-739
-740
-742
-739
-740
-738
-738
-738
-738
-736
-735
-736
-736
-734
-735
-734
-733
-731
-733
-731
-730
-729
-728
-728
-728
-728
-728
-726
-726
-726
-725
-724
-723
-721
-720
-721
-721
-721
-720
-720
-718
-720
-717
-716
-717
-718
-715
-714
-715
-715
-713
-714
-714
-713
-711
-711
-710
-710
-709
-708
-709
-707
-708
-706
-707
-707
-706
-704
-705
-703
-703
-702
-702
-703
-700
-701
-698
-699
-701
-698
-697
-697
-698
-696
-695
-694
-694
-693
-693
-690
-690
-692
-691
-690
-691
-690
-688
-689
-689
-686
-686
-687
-685
-685
-684
-686
-684
-682
-682
-681
-684
-683
-683
-680
-678
-680
-679
-679
-679
-677
-677
-676
-677
-675
-673
-676
-673
-675
-672
-672
-672
-670
-671
-669
-670
-670
-669
-669
-666
-668
-666
-665
-666
-667
-664
-664
-664
-664
-662
-661
-662
-661
-660
-660
-660
-660
-657
-659
-658
-656
-658
-657
-656
-655
-655
-655
-655
-652
-653
-653
-651
-651
-651
-650
-649
-648
-649
-648
-647
-646
-646
-647
-646
-645
-643
-643
-644
-643
-643
-642
-642
-640
-642
-640
-639
-639
-639
-640
-638
-637
-637
-637
-633
-634
-636
-634
-633
-632
-634
-631
-632
-631
-631
-631
-630
-630
-630
-629
-629
-630
-629
-627
-627
-626
-626
-624
-624
-624
-624
-623
-623
-623
-621
-619
-620
-620
-620
-620
-618
-618
-617
-615
-618
-615
-615
-615
-616
-614
-613
-612
-611
-612
-611
-611
-609
-610
-608
-608
-608
-607
-608
-606
-608
-606
-607
-608
-606
-605
-603
-602
-603
-601
-601
-602
-600
-601
-601
-600
-600
-601
-599
-598
-598
-596
-596
-595
-596
-597
-595
-595
-595
-593
-592
-591
-591
-590
-590
-592
-590
-588
-589
-589
-587
-588
-589
-587
-586
-585
-585
-585
-584
-585
-583
-582
-582
-582
-582
-582
-581
-579
-579
-580
-580
-578
-577
-580
-579
-578
-577
-577
-576
-576
-574
-574
-575
-575
-573
-572
-571
-571
-570
-571
-571
-571
-567
-568
-568
-567
-567
-566
-569
-567
-567
-566
-564
-565
-564
-564
-565
-563
-561
-561
-563
-560
-559
-560
-560
-560
-559
-558
-557
-557
-558
-556
-555
-556
-556
-555
-554
-555
-555
-552
-551
-551
-551
-550
-551
-552
-550
-548
-550
-549
-547
-547
-546
-547
-546
-546
-545
-544
-546
-544
-543
-545
-544
-544
-542
-542
-540
-542
-541
-540
-542
-540
-539
-538
-539
-537
-536
-536
-535
-535
-537
-535
-535
-534
-534
-534
-533
-532
-533
-531
-530
-531
-532
-529
-530
-529
-528
-529
-528
-526
-527
-528
-525
-527
-526
-524
-526
-524
-523
-524
-523
-523
-521
-522
-522
-522
-522
-520
-519
-518
-518
-519
-517
-518
-518
-515
-517
-516
-515
-515
-516
-513
-514
-514
-513
-512
-511
-511
-511
-510
-510
-509
-510
-509
-510
-509
-508
-507
-506
-508
-508
-505
-506
-505
-506
-506
-504
-505
-503
-503
-503
-500
-502
-500
-501
-500
-501
-500
-498
-500
-500
-497
-496
-498
-496
-497
-496
-494
-498
-495
-494
-495
-496
-494
-492
-493
-492
-491
-491
-490
-492
-490
-491
-489
-490
-491
-488
-489
-488
-486
-487
-487
-485
-486
-485
-484
-485
-485
-484
-483
-484
-481
-484
-483
-481
-484
-481
-480
-481
-479
-478
-479
-480
-478
-478
-477
-477
-477
-476
-476
-476
-476
-475
-475
-474
-474
-472
-474
-474
-472
-470
-470
-471
-471
-469
-469
-468
-469
-467
-466
-467
-466
-469
-467
-466
-466
-466
-467
-466
-464
-464
-465
-463
-461
-462
-463
-463
-462
-461
-461
-461
-459
-461
-458
-458
-458
-460
-457
-456
-457
-455
-456
-456
-454
-454
-454
-453
-454
-453
-452
-452
-453
-451
-453
-452
-451
-450
-449
-451
-450
-450
-449
-449
-448
-448
-449
-448
-449
-448
-447
-447
-446
-445
-444
-444
-444
-444
-441
-443
-442
-442
-443
-442
-441
-441
-440
-439
-439
-438
-439
-439
-439
-439
-438
-436
-436
-436
-436
-437
-435
-433
-434
-434
-434
-432
-433
-432
-433
-432
-432
-434
-431
-432
-429
-429
-429
-428
-429
-428
-428
-428
-427
-426
-425
-425
-428
-425
-426
-425
-427
-425
-425
-424
-425
-424
-421
-423
-422
-421
-422
-420
-421
-419
-420
-419
-420
-419
-418
-419
-418
-418
-416
-417
-418
-416
-417
-416
-416
-414
-413
-415
-416
-414
-413
-414
-414
-414
-411
-412
-413
-412
-411
-411
-411
-409
-410
-410
-411
-408
-407
-407
-406
-407
-406
-408
-407
-407
-405
-404
-404
-404
-404
-402
-402
-405
-401
-402
-401
-401
-399
-401
-399
-400
-398
-399
-398
-399
-398
-397
-397
-397
-398
-397
-397
-396
-397
-397
-396
-394
-395
-395
-392
-392
-391
-392
-392
-392
-393
-392
-390
-392
-389
-388
-389
-389
-389
-389
-388
-387
-389
-387
-386
-385
-387
-386
-386
-386
-385
-386
-386
-385
-386
-385
-384
-382
-383
-383
-381
-382
-382
-381
-381
-380
-380
-380
-380
-380
-378
-381
-380
-378
-377
-377
-378
-377
-376
-376
-378
-377
-375
-376
-375
-375
-377
-375
-372
-374
-373
-372
-373
-373
-372
-371
-371
-370
-371
-371
-372
-370
-368
-369
-370
-371
-367
-369
-368
-367
-367
-369
-367
-367
-366
-365
-365
-365
-366
-364
-364
-364
-363
-363
-364
-363
-363
-364
-363
-362
-362
-362
-362
-362
-360
-362
-359
-361
-357
-359
-358
-358
-357
-358
-359
-355
-356
-355
-355
-355
-356
-356
-356
-355
-354
-353
-353
-353
-353
-354
-352
-352
-352
-351
-350
-351
-351
-350
-349
-350
-349
-349
-348
-348
-347
-349
-348
-346
-347
-347
-345
-346
-346
-345
-346
-344
-344
-344
-345
-346
-344
-345
-343
-343
-343
-342
-345
-343
-343
-342
-343
-342
-341
-342
-340
-340
-340
-340
-340
-339
-338
-338
-339
-339
-338
-338
-336
-336
-335
-337
-338
-335
-335
-336
-335
-333
-334
-334
-334
-334
-334
-332
-334
-332
-334
-332
-332
-331
-331
-330
-330
-331
-331
-329
-328
-328
-329
-328
-328
-327
-327
-328
-328
-326
-326
-327
-327
-327
-326
-325
-325
-326
-325
-323
-323
-325
-324
-324
-323
-322
-321
-323
-322
-322
-322
-321
-322
-321
-320
-321
-320
-320
-319
-320
-321
-319
-319
-320
-318
-318
-316
-318
-317
-317
-316
-317
-315
-316
-315
-315
-315
-315
-316
-314
-315
-314
-313
-314
-311
-311
-312
-312
-313
-311
-311
-312
-310
-310
-313
-308
-310
-310
-310
-308
-308
-309
-309
-308
-306
-307
-307
-305
-306
-307
-305
-307
-305
-305
-304
-305
-305
-303
-303
-301
-303
-303
-304
-302
-301
-301
-302
-301
-301
-301
-302
-302
-299
-298
-301
-298
-298
-299
-300
-297
-299
-298
-296
-296
-296
-295
-295
-295
-296
-295
-295
-294
-294
-294
-293
-293
-294
-294
-292
-294
-292
-290
-293
-292
-292
-291
-292
-291
-290
-290
-290
-291
-290
-291
-289
-288
-288
-288
-289
-288
-288
-287
-287
-288
-286
-285
-286
-286
-286
-286
-284
-286
-285
-284
-282
-284
-286
-284
-284
-281
-283
-283
-282
-282
-281
-282
-281
-281
-280
-281
-280
-279
-278
-281
-280
-280
-279
-279
-279
-278
-278
-278
-277
-276
-278
-277
-277
-276
-277
-275
-277
-276
-274
-274
-273
-272
-275
-274
-275
-275
-272
-273
-273
-273
-273
-272
-272
-273
-271
-271
-271
-272
-271
-271
-270
-271
-271
-271
-270
-269
-269
-269
-268
-268
-268
-266
-267
-266
-266
-267
-266
-266
-267
-266
-264
-265
-264
-266
-267
-264
-263
-264
-263
-264
-263
-265
-264
-263
-261
-263
-262
-261
-261
-263
-259
-261
-260
-260
-261
-261
-261
-259
-260
-260
-258
-258
-258
-258
-259
-258
-258
-257
-255
-256
-256
-255
-256
-254
-255
-254
-254
-254
-254
-255
-255
-255
-253
-253
-250
-253
-253
-253
-252
-251
-250
-251
-252
-249
-251
-250
-251
-249
-248
-248
-249
-249
-250
-248
-247
-249
-248
-248
-247
-246
-247
-246
-245
-247
-244
-244
-245
-245
-245
-243
-244
-243
-243
-243
-243
-244
-244
-244
-244
-243
-242
-242
-242
-243
-241
-242
-243
-242
-241
-241
-242
-241
-241
-241
-240
-239
-240
-240
-240
-238
-237
-241
-239
-239
-238
-238
-238
-237
-238
-236
-237
-236
-236
-235
-235
-236
-236
-234
-235
-236
-234
-234
-235
-233
-232
-234
-233
-233
-234
-233
-233
-231
-231
-233
-232
-231
-232
-232
-231
-230
-232
-231
-230
-230
-230
-230
-229
-231
-225
-232
-223
-237
-214
-246
-196
-278
-131
-915
-1497
-1372
-1463
-1406
-1443
-1427
-1443
-1430
-1432
-1435
-1441
-1444
-1449
-1456
-1457
-1466
-1468
-1461
-1449
-1442
-1444
-1441
-1448
-1452
-1454
-1454
-1457
-1464
-1471
-1474
-1484
-1487
-1484
-1475
-1480
-1500
-1512
-1507
-1506
-1506
-1500
-1495
-1505
-1513
-1512
-1521
-1533
-1540
-1535
-1519
-1518
-1521
-1528
-1530
-1528
-1523
-1518
-1511
-1506
-1495
-1485
-1486
-1497
-1505
-1505
-1508
-1514
-1517
-1516
-1515
-1511
-1510
-1510
-1501
-1491
-1487
-1483
-1468
-1450
-1438
-1430
-1414
-1392
-1387
-1391
-1377
-1357
-1349
-1346
-1335
-1320
-1309
-1305
-1300
-1291
-1282
-1273
-1271
-1267
-1260
-1249
-1244
-1244
-1241
-1241
-1243
-1236
-1228
-1219
-1207
-1197
-1191
-1194
-1180
-1167
-1167
-1163
-1155
-1144
-1134
-1119
-1100
-1088
-1085
-1088
-1085
-1070
-1054
-1038
-1028
-1014
-1011
-1010
-1008
-1007
-1003
-995
-981
-970
-969
-971
-962
-949
-945
-940
-929
-913
-900
-887
-868
-855
-852
-840
-817
-803
-796
-787
-769
-759
-755
-751
-735
-725
-733
-747
-755
-753
-746
-754
-755
-747
-749
-768
-790
-805
-811
-827
-840
-840
-842
-851
-861
-870
-872
-868
-866
-863
-857
-848
-835
-823
-813
-801
-792
-783
-773
-754
-742
-746
-746
-736
-727
-727
-731
-737
-750
-771
-785
-808
-819
-828
-843
-863
-883
-898
-916
-939
-950
-959
-941
-922
-930
-955
-969
-966
-960
-970
-977
-973
-970
-973
-975
-976
-981
-989
-1001
-1004
-1013
-1021
-1029
-1028
-1024
-1026
-1024
-1015
-995
-976
-970
-969
-955
-938
-927
-921
-913
-907
-907
-908
-897
-891
-890
-887
-888
-889
-883
-878
-887
-893
-895
-896
-898
-902
-897
-888
-895
-907
-900
-878
-868
-872
-876
-867
-857
-858
-859
-857
-859
-868
-872
-864
-857
-855
-855
-858
-854
-854
-856
-848
-835
-828
-822
-816
-810
-807
-809
-801
-787
-771
-761
-761
-765
-766
-767
-763
-759
-761
-771
-771
-768
-770
-777
-778
-779
-781
-785
-788
-782
-774
-778
-788
-786
-786
-784
-782
-779
-778
-786
-787
-775
-767
-766
-767
-763
-758
-755
-762
-767
-764
-752
-747
-749
-752
-752
-756
-762
-767
-766
-764
-766
-759
-749
-745
-747
-752
-751
-745
-739
-734
-719
-704
-700
-701
-692
-678
-673
-670
-666
-648
-636
-634
-625
-611
-605
-608
-594
-576
-569
-577
-575
-561
-550
-548
-558
-564
-567
-573
-577
-568
-562
-570
-575
-566
-555
-554
-553
-546
-545
-537
-524
-514
-502
-497
-493
-491
-497
-498
-508
-512
-507
-500
-500
-510
-510
-500
-497
-498
-497
-490
-492
-493
-490
-490
-493
-494
-497
-489
-483
-481
-479
-478
-475
-482
-486
-480
-476
-477
-477
-463
-449
-449
-446
-440
-437
-438
-439
-431
-420
-413
-409
-403
-395
-391
-396
-405
-405
-400
-396
-391
-380
-375
-377
-379
-374
-360
-345
-341
-331
-324
-315
-308
-295
-286
-281
-275
-265
-260
-260
-259
-256
-250
-253
-254
-252
-252
-263
-279
-279
-266
-256
-256
-261
-271
-276
-274
-278
-291
-297
-295
-289
-296
-305
-307
-308
-310
-321
-328
-325
-309
-304
-313
-315
-303
-296
-304
-304
-302
-301
-298
-294
-296
-296
-306
-309
-314
-322
-326
-335
-329
-324
-330
-337
-335
-335
-340
-334
-330
-332
-330
-320
-316
-322
-332
-332
-320
-319
-329
-330
-322
-318
-324
-336
-341
-338
-334
-342
-350
-353
-354
-345
-335
-337
-338
-338
-325
-314
-327
-331
-315
-286
-271
-281
-286
-282
-280
-284
-278
-268
-269
-273
-263
-238
-236
-251
-257
-249
-250
-265
-271
-266
-263
-280
-296
-297
-305
-328
-352
-359
-364
-368
-379
-392
-404
-421
-444
-458
-464
-479
-491
-500
-507
-518
-529
-532
-546
-562
-576
-591
-602
-611
-618
-625
-629
-641
-655
-658
-650
-645
-649
-651
-643
-634
-630
-621
-615
-604
-596
-588
-570
-552
-529
-505
-488
-481
-475
-455
-423
-391
-377
-352
-305
-274
-254
-239
-219
-185
-148
-100
-70
-44
-12
17
44
77
106
112
110
133
171
199
216
223
231
240
236
229
233
246
251
252
255
259
252
248
236
229
220
206
199
195
183
171
165
154
136
120
111
104
94
87
79
74
67
53
37
30
28
19
0
-17
-36
-39
-50
-89
-120
-153
-172
-196
-228
-244
-248
-258
-280
-297
-299
-304
-314
-308
-272
-225
-185
-160
-133
-89
-28
47
125
219
316
408
503
603
692
758
823
897
970
1024
1068
1115
1151
1165
1173
1188
1200
1188
1166
1162
1146
1105
1043
981
915
850
755
646
538
423
298
159
24
-112
-257
-406
-553
-700
-831
-953
-1059
-1154
-1244
-1320
-1375
-1421
-1459
-1467
-1455
-1432
-1403
-1362
-1307
-1239
-1163
-1080
-995
-905
-811
-717
-615
-505
-407
-316
-237
-155
-82
-32
-5
3
11
13
-5
-27
-53
-82
-121
-170
-210
-234
-255
-272
-281
-289
-290
-284
-272
-252
-225
-180
-139
-112
-83
-49
-17
5
27
49
76
114
161
216
274
347
424
504
608
728
850
971
1070
1142
1206
1269
1329
1377
1419
1457
1501
1502
1538
1594
1603
1596
1572
1571
1575
1578
1596
1623
1635
1629
1607
1557
1488
1380
1256
1119
934
737
555
400
243
81
-68
-203
-347
-485
-586
-701
-836
-1010
-1105
-1167
-1262
-1388
-1526
-1618
-1700
-1791
-1856
-1960
-2064
-2176
-2244
-2271
-2307
-2352
-2385
-2360
-2319
-2299
-2275
-2230
-2171
-2115
-2002
-1887
-1768
-1690
-1586
-1418
-1271
-1146
-1040
-923
-813
-732
-664
-606
-549
-493
-452
-433
-420
-407
-386
-373
-378
-382
-367
-343
-319
-287
-255
-220
-181
-127
-63
-13
45
122
194
250
298
348
394
426
456
487
514
537
555
565
572
576
579
576
567
558
550
530
513
499
481
465
461
459
443
429
426
431
423
409
419
433
444
456
473
498
525
544
562
582
601
619
631
643
655
659
661
664
658
645
627
612
589
563
532
503
481
441
391
354
317
276
215
162
125
87
32
-27
-76
-127
-185
-244
-297
-334
-367
-408
-449
-489
-515
-521
-523
-515
-526
-528
-519
-503
-500
-503
-492
-468
-458
-453
-455
-445
-427
-421
-414
-408
-387
-376
-382
-384
-375
-352
-334
-335
-335
-322
-321
-331
-328
-313
-296
-287
-283
-270
-251
-235
-234
-220
-194
-173
-168
-167
-148
-137
-129
-117
-103
-85
-67
-55
-37
-28
-21
-13
7
30
43
44
57
69
79
99
101
92
90
94
95
91
89
102
106
102
102
111
115
115
111
103
99
94
87
89
92
99
108
121
132
133
134
138
142
142
150
159
168
167
162
165
166
155
161
171
177
173
171
185
185
177
176
189
193
192
199
206
202
198
204
212
211
201
202
205
201
195
185
167
146
139
129
124
111
81
57
62
68
56
39
27
33
37
32
36
45
48
32
-6
-19
-6
11
-4
-33
-43
-42
-46
-63
-83
-86
-90
-110
-126
-126
-123
-120
-117
-112
-102
-109
-118
-119
-114
-103
-109
-113
-121
-129
-128
-115
-124
-145
-132
-107
-77
-76
-78
-76
-65
-61
-64
-90
-128
-93
-57
-45
-58
-70
-65
-64
-74
-85
-94
-103
-119
-139
-153
-156
-161
-178
-205
-207
-193
-188
-190
-183
-165
-155
-147
-139
-128
-118
-110
-103
-92
-74
-53
-42
-34
-24
-18
-12
-8
-7
-1
17
31
41
59
78
79
77
89
104
105
104
121
143
145
141
138
133
136
141
150
159
162
156
149
145
138
130
128
131
131
116
108
109
104
88
76
70
58
39
27
34
34
16
8
25
40
33
37
59
67
68
90
120
135
135
135
144
143
142
147
150
142
139
149
150
147
134
119
119
124
130
147
156
160
159
152
142
135
128
139
131
151
160
124
102
108
126
115
91
90
101
102
85
72
76
80
71
66
65
65
63
64
70
68
64
66
64
60
51
48
52
48
43
42
51
61
64
73
84
92
94
101
109
105
99
101
107
102
83
75
78
83
76
68
67
67
61
46
44
56
63
62
60
80
80
91
66
53
66
85
99
99
100
110
127
135
139
142
158
170
173
175
187
199
197
187
184
190
195
189
193
207
217
222
219
212
214
213
216
228
235
232
233
235
236
237
236
238
240
228
216
219
232
231
216
206
201
184
174
171
170
173
165
162
162
157
153
142
135
131
133
135
144
137
118
114
111
106
88
79
82
105
112
112
122
122
116
115
120
131
137
149
163
165
160
155
164
174
184
194
202
208
211
210
208
207
209
213
215
223
241
238
225
224
226
226
228
237
247
245
245
252
258
269
265
258
263
271
264
250
244
252
261
254
247
244
236
225
222
229
234
189
143
177
259
280
232
210
223
248
253
237
240
255
267
250
253
282
308
300
291
299
315
318
294
282
290
292
283
276
272
248
220
246
264
247
210
212
224
213
202
191
192
189
175
164
165
177
171
158
146
143
147
155
153
146
150
163
158
152
154
159
162
160
164
160
159
169
182
184
187
196
194
185
179
180
187
181
172
176
179
172
164
155
160
158
146
140
134
140
146
150
151
144
136
134
142
142
141
151
159
149
137
137
138
141
135
123
128
141
133
120
119
122
112
101
107
124
124
123
130
142
145
142
142
150
154
150
155
155
151
141
139
140
130
124
127
134
135
125
117
109
96
94
97
99
95
89
81
76
73
68
60
56
65
77
56
52
72
72
64
70
84
89
86
78
79
90
103
115
126
131
132
131
137
147
151
147
143
159
174
179
167
162
160
156
156
167
196
213
219
232
237
239
243
243
242
240
239
234
217
208
209
202
184
173
167
150
139
122
100
94
100
88
81
88
80
88
93
94
107
143
145
134
146
177
185
174
176
202
217
201
192
190
184
172
161
170
180
174
162
163
138
131
131
121
99
80
98
90
74
76
116
117
86
92
131
145
123
129
155
136
106
106
128
148
169
225
289
306
296
304
330
332
292
262
262
254
226
209
202
173
129
124
147
153
140
153
195
198
186
170
162
153
114
60
32
12
-25
-67
-92
-121
-148
-177
-200
-194
-182
-187
-192
-196
-193
-183
-169
-137
-120
-117
-98
-85
-92
-84
-74
-67
-64
-54
-40
-32
-34
-41
-40
-35
-39
-45
-49
-53
-60
-79
-83
-71
-57
-54
-62
-64
-56
-51
-51
-46
-42
-45
-32
-22
-36
-44
-33
-26
-40
-47
-51
-46
-50
-53
-62
-76
-67
-64
-59
-74
-83
-78
-84
-86
-98
-107
-104
-111
-112
-120
-122
-126
-146
-135
-122
-118
-116
-117
-112
-99
-83
-72
-68
-65
-62
-58
-54
-52
-46
-50
-55
-57
-62
-53
-33
-22
-18
-8
17
39
61
97
136
187
245
299
325
353
392
417
438
442
462
518
606
702
789
876
930
951
973
960
926
872
790
681
536
373
203
44
-119
-274
-387
-463
-542
-616
-672
-706
-718
-729
-735
-730
-725
-705
-665
-630
-589
-542
-481
-411
-362
-313
-252
-191
-132
-79
-42
-26
-2
28
60
87
106
145
197
238
293
358
418
485
557
633
710
788
866
945
1038
1091
1138
1192
1242
1282
1305
1323
1349
1367
1358
1337
1310
1276
1237
1211
1183
1128
1061
1007
959
913
845
785
738
694
644
587
536
486
426
366
323
280
216
163
116
66
8
-56
-112
-175
-237
-291
-343
-393
-446
-492
-536
-567
-598
-632
-663
-689
-708
-708
-706
-709
-703
-681
-652
-631
-604
-563
-527
-480
-429
-380
-323
-263
-207
-154
-116
-73
-25
26
72
105
145
188
225
248
270
296
318
354
389
405
420
435
442
463
463
460
482
504
527
541
561
588
611
625
640
667
693
712
723
720
716
711
703
699
690
662
627
602
569
525
468
415
368
310
243
182
129
73
22
-34
-82
-125
-161
-186
-215
-251
-272
-266
-261
-259
-268
-278
-282
-293
-300
-309
-311
-304
-301
-294
-289
-293
-302
-318
-320
-327
-333
-336
-335
-334
-341
-342
-337
-337
-340
-346
-350
-351
-342
-331
-329
-346
-342
-333
-321
-315
-296
-276
-254
-238
-233
-224
-216
-200
-175
-154
-126
-98
-71
-42
-18
-3
14
32
69
103
106
140
169
193
206
217
240
260
278
297
315
334
353
372
387
401
410
414
433
443
444
438
432
438
441
430
417
408
402
384
374
377
370
365
360
353
360
351
310
296
306
308
297
293
295
286
266
250
241
232
216
210
208
201
175
155
151
143
123
110
106
100
93
83
74
72
48
34
33
31
28
21
17
12
-3
-20
-36
-39
-33
-35
-50
-64
-69
-73
-81
-90
-82
-71
-77
-88
-91
-91
-88
-86
-83
-78
-86
-89
-79
-79
-82
-77
-78
-83
-96
-99
-99
-104
-118
-119
-114
-110
-107
-112
-119
-128
-137
-135
-135
-134
-125
-116
-112
-116
-123
-124
-123
-116
-118
-118
-107
-88
-77
-72
-67
-60
-58
-52
-40
-29
-25
-20
-5
11
16
19
29
47
72
96
120
135
152
181
201
216
226
235
250
258
265
278
293
294
288
290
305
318
319
317
324
336
344
344
349
344
346
345
339
334
333
340
349
349
341
340
342
333
328
333
339
341
336
328
320
310
297
287
290
287
288
292
296
299
293
290
299
304
298
297
309
325
323
315
317
316
302
295
298
303
308
311
300
281
273
270
255
247
248
248
227
200
182
174
162
152
143
148
131
111
100
94
89
72
57
54
45
35
32
32
30
35
45
55
60
57
57
56
54
58
66
78
82
79
86
100
117
118
123
140
150
162
170
182
193
195
201
215
229
234
226
221
222
233
246
250
242
237
237
240
251
276
292
284
277
284
290
284
274
285
303
311
303
306
310
309
302
299
302
293
275
273
273
264
248
244
250
251
243
232
225
223
228
223
207
192
180
172
161
153
143
135
125
117
108
94
86
80
62
50
43
44
55
64
66
63
60
67
73
66
60
71
80
71
63
55
48
29
17
23
30
32
30
37
41
44
56
83
91
92
107
118
123
129
134
144
146
141
134
135
131
121
113
106
95
70
51
40
22
5
-18
-39
-62
-79
-100
-111
-115
-123
-128
-128
-127
-128
-126
-115
-112
-113
-109
-90
-84
-86
-75
-57
-48
-51
-52
-52
-41
-26
-16
-16
-14
-13
-12
-27
-36
-34
-26
-20
-24
-18
2
25
38
50
63
72
80
86
108
135
149
157
174
182
182
191
211
220
211
209
220
227
228
221
207
193
171
156
159
174
183
183
179
179
180
186
188
186
192
201
209
215
218
206
195
203
209
207
192
188
189
186
174
162
165
170
161
152
151
153
153
147
139
134
133
133
126
119
122
119
109
101
107
109
105
96
93
94
89
88
84
85
80
66
55
34
14
8
15
18
18
18
22
16
8
5
7
3
1
9
10
9
-2
-15
-28
-33
-32
-38
-49
-55
-48
-48
-56
-57
-51
-50
-50
-39
-20
3
14
18
31
42
58
76
89
107
122
135
138
139
133
132
128
118
119
116
111
100
90
78
74
70
64
55
52
47
46
47
54
65
66
60
60
59
43
15
7
20
32
32
27
32
28
14
9
20
25
27
29
44
61
71
71
73
81
93
93
97
103
107
103
92
86
71
59
57
55
48
46
43
43
44
40
37
41
54
71
95
123
148
163
179
203
227
242
257
269
286
301
302
291
281
279
275
265
248
232
218
204
188
171
154
131
109
84
57
39
33
38
42
40
41
44
45
44
56
65
66
83
97
107
108
101
89
72
68
66
51
27
20
9
-11
-38
-58
-66
-77
-92
-95
-93
-104
-113
-105
-101
-112
-115
-103
-95
-94
-90
-82
-74
-69
-64
-58
-46
-41
-39
-36
-29
-29
-29
-26
-19
-20
-20
-19
-24
-26
-22
-14
-13
-17
-15
-16
-19
-30
-32
-26
-29
-38
-47
-50
-58
-68
-77
-82
-87
-97
-98
-86
-92
-110
-112
-105
-101
-98
-89
-76
-65
-51
-30
-9
1
11
28
41
53
71
88
105
116
124
135
145
155
153
161
180
190
195
206
212
211
207
204
204
201
191
182
184
184
165
147
147
147
138
126
129
129
124
128
124
113
102
96
95
88
81
71
65
58
63
68
49
39
30
31
31
19
14
19
21
19
12
11
12
9
9
17
16
13
4
-1
-2
-6
-3
-1
1
4
6
7
3
-2
1
2
8
22
41
59
71
81
89
103
117
128
146
166
182
187
194
202
212
212
213
225
236
242
255
271
272
266
272
290
302
307
315
326
333
335
342
347
351
350
347
345
344
346
349
348
345
346
347
349
344
328
319
322
321
321
332
338
320
307
308
310
305
300
295
298
296
286
268
256
247
241
235
237
239
231
224
222
212
199
196
196
199
205
206
200
197
196
198
203
200
192
187
190
191
181
167
163
166
156
142
138
131
116
100
98
88
68
54
46
33
13
1
-10
-26
-37
-53
-72
-87
-106
-127
-140
-147
-163
-170
-175
-179
-191
-214
-222
-225
-223
-216
-218
-226
-209
-188
-187
-187
-181
-178
-167
-142
-113
-84
-66
-50
-38
-25
-26
-16
9
31
51
67
84
92
91
97
103
102
104
120
129
123
129
137
127
115
109
97
71
63
76
75
48
28
23
14
3
-8
-9
-15
-31
-42
-52
-61
-76
-90
-98
-110
-115
-112
-111
-116
-121
-113
-104
-104
-106
-96
-81
-67
-55
-53
-51
-37
-22
-19
-19
-17
-4
10
12
8
15
20
17
10
3
-2
-11
-23
-29
-30
-38
-48
-58
-71
-94
-107
-114
-116
-119
-118
-119
-119
-124
-135
-146
-149
-146
-140
-138
-142
-139
-132
-122
-116
-110
-101
-97
-99
-91
-75
-73
-69
-66
-62
-57
-49
-46
-51
-48
-45
-38
-35
-36
-43
-46
-51
-59
-67
-65
-67
-74
-81
-85
-87
-98
-111
-117
-112
-104
-101
-98
-90
-85
-81
-75
-72
-64
-54
-45
-39
-32
-32
-32
-32
-38
-44
-46
-47
-47
-49
-43
-51
-64
-70
-77
-82
-82
-79
-72
-70
-67
-69
-71
-77
-75
-66
-52
-38
-32
-18
-3
2
3
15
27
37
48
65
82
101
106
112
119
128
136
140
148
160
170
180
188
192
193
194
201
214
223
221
216
217
216
221
231
238
243
245
253
258
263
261
267
275
279
276
275
282
280
266
249
246
243
225
213
207
192
175
164
156
137
115
90
67
45
19
-7
-26
-39
-52
-75
-103
-120
-137
-162
-181
-197
-200
-196
-194
-197
-203
-213
-228
-232
-234
-237
-243
-249
-249
-251
-265
-272
-273
-284
-296
-301
-308
-326
-346
-356
-362
-372
-387
-398
-406
-413
-422
-436
-446
-450
-464
-476
-483
-486
-488
-488
-488
-490
-482
-473
-462
-441
-416
-402
-384
-363
-340
-313
-282
-251
-224
-197
-167
-143
-121
-91
-49
-14
20
50
84
110
132
152
178
206
228
250
272
296
322
345
356
371
391
415
439
464
486
501
512
518
523
521
525
526
521
514
510
501
480
451
425
399
385
369
341
309
275
248
222
181
136
95
59
28
-6
-41
-66
-85
-112
-137
-146
-161
-183
-198
-204
-213
-217
-214
-214
-211
-215
-226
-236
-242
-241
-255
-269
-275
-280
-298
-314
-331
-343
-348
-349
-361
-365
-361
-363
-360
-351
-338
-316
-284
-238
-187
-131
-67
15
110
203
293
399
518
636
750
865
979
1073
1160
1243
1322
1395
1459
1509
1546
1571
1581
1570
1547
1514
1463
1401
1327
1245
1157
1071
981
876
763
642
520
401
287
167
47
-67
-174
-291
-397
-482
-560
-641
-711
-760
-788
-805
-814
-815
-798
-763
-729
-696
-652
-592
-527
-456
-381
-300
-222
-155
-89
-24
40
105
184
264
329
396
456
491
502
520
538
542
523
487
453
414
367
315
264
213
162
114
74
56
45
17
-18
-47
-76
-118
-167
-202
-202
-180
-180
-198
-211
-208
-191
-172
-139
-106
-92
-77
-42
14
69
137
226
315
377
403
408
404
397
392
401
439
514
625
758
899
1042
1171
1266
1319
1322
1272
1168
1008
814
607
388
165
-58
-263
-469
-676
-866
-1053
-1246
-1439
-1614
-1776
-1935
-2079
-2199
-2287
-2353
-2401
-2422
-2424
-2402
-2369
-2327
-2263
-2189
-2128
-2073
-2009
-1940
-1883
-1836
-1785
-1741
-1692
-1646
-1597
-1542
-1488
-1436
-1384
-1322
-1259
-1204
-1134
-1036
-929
-834
-716
-575
-416
-270
-109
66
227
381
531
677
813
950
1091
1230
1355
1469
1586
1684
1761
1815
1860
1909
1954
2002
2057
2078
2057
2031
2013
1999
1974
1945
1919
1883
1841
1787
1735
1682
1619
1559
1506
1450
1399
1349
1303
1255
1208
1166
1124
1089
1057
1033
1008
981
963
949
934
915
893
879
872
859
839
816
793
752
705
659
606
549
487
420
352
272
197
122
53
-12
-73
-128
-185
-236
-269
-303
-348
-396
-438
-469
-482
-480
-481
-484
-470
-449
-429
-405
-388
-352
-311
-295
-277
-231
-171
-137
-125
-90
-40
-7
8
32
71
100
114
142
178
198
211
233
256
279
301
330
350
361
377
389
401
406
406
401
406
418
424
428
432
442
439
429
424
430
435
426
413
398
383
365
353
341
338
330
314
306
299
292
296
313
325
330
319
303
297
293
288
283
281
269
254
239
217
192
162
141
128
121
106
96
94
90
78
71
81
97
109
116
121
125
118
103
90
84
77
64
48
34
20
7
-3
-11
-19
-21
-22
-12
4
22
35
34
29
39
48
52
62
72
69
66
67
58
37
22
13
6
-5
-17
-24
-29
-33
-37
-42
-49
-48
-46
-45
-54
-66
-74
-74
-81
-94
-112
-133
-146
-156
-162
-168
-169
-167
-166
-175
-190
-196
-202
-211
-220
-229
-247
-245
-234
-229
-230
-233
-230
-225
-222
-224
-223
-211
-195
-186
-185
-183
-175
-187
-190
-186
-174
-173
-191
-199
-200
-196
-201
-207
-206
-185
-169
-175
-169
-168
-171
-166
-149
-139
-133
-128
-122
-108
-96
-91
-81
-67
-50
-40
-40
-34
-24
-6
2
5
12
23
42
59
72
70
67
79
90
95
98
107
115
114
113
122
128
138
151
150
143
137
131
120
108
101
91
79
73
77
69
55
46
39
30
27
31
31
30
28
17
3
-9
-17
-25
-23
-16
-18
-30
-40
-44
-43
-46
-46
-35
-30
-32
-41
-54
-55
-51
-59
-66
-61
-52
-53
-57
-61
-64
-67
-71
-73
-72
-63
-62
-57
-47
-48
-55
-46
-25
-7
0
9
19
28
40
54
68
84
99
105
116
126
125
117
122
128
128
126
127
130
137
137
130
133
143
140
134
124
112
99
89
82
74
70
66
58
47
43
31
22
16
6
-7
-10
-5
3
-5
-16
-16
-12
-20
-27
-14
-11
-6
-14
-11
5
4
-15
-6
37
18
-22
5
57
50
29
49
69
48
22
24
14
-17
-41
-59
-80
-103
-124
-138
-151
-163
-176
-188
-184
-177
-181
-173
-139
-103
-77
-53
-28
4
34
55
67
77
83
83
85
86
83
75
64
61
48
33
24
25
31
44
54
53
50
52
55
56
64
69
76
85
84
73
56
39
23
12
2
-17
-28
-34
-37
-44
-60
-77
-92
-93
-95
-98
-94
-93
-106
-121
-129
-140
-149
-148
-144
-144
-140
-137
-139
-141
-139
-135
-139
-138
-134
-134
-134
-136
-141
-137
-122
-114
-111
-118
-120
-119
-112
-103
-100
-97
-90
-87
-92
-102
-106
-104
-103
-104
-99
-94
-101
-106
-105
-113
-126
-134
-133
-132
-132
-129
-124
-121
-119
-118
-108
-93
-82
-78
-62
-42
-30
-23
-10
7
21
41
67
79
77
88
107
116
115
122
130
141
142
141
150
165
174
176
173
165
153
141
131
130
135
136
132
127
123
117
100
85
82
89
95
101
112
109
96
80
76
77
91
98
104
108
106
94
81
76
77
73
69
75
81
87
87
84
76
77
83
88
88
86
100
116
123
128
137
135
123
122
136
151
160
155
155
162
161
156
163
173
175
177
185
187
178
174
185
194
195
191
200
215
222
228
239
255
261
270
285
299
311
319
323
326
324
322
328
326
316
313
317
323
316
298
288
284
265
233
204
184
154
120
97
81
55
20
-11
-23
-17
-11
-1
9
19
20
16
28
42
58
61
57
50
52
59
62
55
58
64
64
70
76
84
88
89
88
90
80
66
60
47
19
-12
-31
-47
-70
-92
-109
-113
-122
-127
-129
-145
-176
-194
-197
-198
-190
-159
-117
-106
-106
-78
-41
-35
-48
-48
-31
-44
-64
-71
-63
-62
-57
-36
-4
3
-6
-16
-35
-65
-76
-71
-63
-61
-58
-45
-23
-11
-18
-16
0
28
52
59
58
24
-36
-104
-150
-175
-193
-217
-242
-275
-302
-312
-317
-320
-326
-321
-306
-288
-272
-252
-229
-211
-203
-190
-167
-151
-143
-139
-134
-135
-138
-137
-131
-127
-122
-121
-120
-122
-127
-133
-138
-148
-171
-190
-199
-211
-220
-234
-241
-251
-256
-254
-260
-268
-283
-292
-299
-309
-319
-318
-305
-295
-297
-297
-288
-279
-277
-271
-253
-237
-227
-223
-213
-196
-180
-163
-141
-118
-103
-84
-69
-53
-41
-36
-28
-19
-5
5
15
28
41
43
36
29
31
30
30
26
37
5
2
28
40
44
42
43
37
27
17
12
9
-2
-18
-27
-33
-48
-70
-86
-99
-110
-121
-131
-134
-136
-147
-158
-159
-147
-137
-141
-146
-145
-147
-149
-150
-149
-150
-156
-156
-155
-156
-167
-177
-191
-200
-203
-195
-192
-189
-186
-191
-196
-195
-200
-209
-218
-231
-238
-239
-238
-240
-245
-251
-247
-238
-226
-209
-195
-176
-155
-141
-128
-109
-75
-31
7
54
103
143
164
157
131
89
47
40
89
203
352
499
597
654
704
756
794
766
644
434
160
-150
-469
-763
-1005
-1188
-1307
-1374
-1405
-1414
-1410
-1395
-1369
-1330
-1275
-1204
-1111
-1012
-913
-805
-700
-612
-546
-487
-422
-365
-320
-279
-233
-178
-127
-85
-49
-23
1
28
61
96
136
193
282
376
466
563
675
790
887
988
1097
1195
1282
1370
1469
1564
1652
1721
1781
1822
1845
1855
1851
1828
1783
1732
1669
1590
1490
1390
1285
1174
1059
936
823
711
595
471
351
242
136
31
-69
-169
-259
-341
-423
-507
-581
-651
-711
-767
-812
-856
-901
-942
-974
-1007
-1041
-1064
-1076
-1081
-1083
-1080
-1060
-1032
-1014
-997
-961
-911
-868
-814
-735
-648
-582
-520
-445
-363
-295
-226
-145
-63
-2
54
116
173
220
263
310
364
411
453
496
529
552
567
581
593
592
588
587
575
559
542
524
501
476
445
409
374
335
301
274
248
209
174
151
128
100
71
51
35
21
12
9
1
-4
-9
-18
-31
-48
-58
-63
-77
-92
-97
-103
-118
-129
-135
-147
-163
-168
-164
-169
-179
-187
-186
-188
-200
-202
-200
-198
-208
-220
-222
-210
-189
-165
-138
-104
-63
-13
36
91
145
208
275
347
420
490
554
595
621
653
690
703
692
685
671
639
588
531
468
389
297
207
118
13
-98
-195
-286
-379
-471
-540
-602
-658
-706
-731
-749
-763
-764
-744
-706
-681
-654
-615
-570
-531
-499
-461
-417
-379
-356
-322
-292
-281
-278
-266
-256
-257
-257
-257
-264
-279
-298
-319
-336
-347
-357
-367
-370
-371
-369
-366
-366
-359
-354
-340
-313
-268
-217
-182
-158
-125
-82
-44
-16
16
55
102
147
190
236
275
305
337
380
418
448
484
514
528
537
550
567
574
571
573
580
582
574
563
557
546
524
507
494
477
459
447
436
423
407
395
390
378
353
338
339
336
317
289
260
209
124
-28
-272
-561
-734
-644
-280
231
760
1228
1597
1819
1875
1815
1701
1547
1356
1133
885
620
337
54
-213
-466
-711
-932
-1120
-1278
-1409
-1517
-1599
-1652
-1675
-1669
-1637
-1574
-1459
-1293
-1089
-873
-654
-439
-255
-103
24
126
209
269
309
328
322
306
279
234
177
114
54
-3
-63
-125
-174
-209
-244
-284
-310
-319
-319
-317
-306
-291
-281
-264
-232
-197
-161
-119
-67
-18
34
80
129
178
218
241
275
312
347
381
405
425
421
420
421
421
413
415
415
405
394
381
364
343
332
324
316
307
296
289
291
286
285
286
288
290
289
297
312
325
329
332
338
345
357
368
381
394
405
411
419
435
448
453
448
436
429
428
421
412
409
402
383
356
327
300
270
245
218
195
175
150
126
98
69
46
28
12
-6
-24
-40
-52
-72
-83
-81
-81
-89
-97
-98
-99
-101
-103
-116
-128
-138
-138
-134
-129
-128
-130
-130
-131
-134
-130
-122
-112
-100
-87
-70
-60
-52
-48
-47
-52
-58
-64
-66
-69
-71
-76
-77
-74
-73
-79
-89
-87
-75
-62
-56
-43
-21
-2
13
29
42
50
56
69
86
93
104
118
124
126
124
130
130
136
151
160
168
167
161
156
150
150
158
169
177
179
183
189
196
201
203
207
215
218
221
228
224
216
207
202
199
195
189
185
186
187
182
171
162
156
142
126
122
126
122
105
88
76
65
52
39
30
24
19
17
17
17
9
4
-2
-16
-24
-21
-17
-21
-30
-36
-44
-59
-70
-78
-88
-100
-116
-128
-140
-153
-165
-176
-197
-218
-226
-230
-227
-228
-226
-227
-237
-246
-256
-263
-270
-273
-268
-262
-262
-267
-270
-267
-272
-275
-268
-261
-258
-250
-230
-211
-200
-190
-183
-177
-168
-155
-140
-129
-116
-111
-116
-126
-128
-123
-110
-100
-100
-102
-101
-105
-122
-140
-149
-166
-178
-192
-201
-210
-211
-217
-218
-215
-211
-212
-215
-204
-192
-184
-171
-155
-146
-147
-150
-149
-144
-138
-133
-128
-119
-111
-114
-119
-119
-114
-115
-114
-110
-107
-101
-92
-79
-72
-74
-74
-65
-51
-45
-46
-41
-34
-37
-52
-69
-72
-78
-93
-96
-100
-113
-130
-148
-170
-187
-192
-185
-184
-180
-172
-162
-151
-152
-152
-136
-116
-105
-99
-83
-71
-72
-69
-65
-61
-54
-44
-36
-28
-21
-13
-1
7
6
3
6
11
11
3
4
3
-12
-30
-44
-58
-74
-82
-87
-97
-104
-105
-103
-105
-114
-124
-125
-124
-121
-113
-106
-102
-106
-105
-104
-104
-109
-113
-114
-118
-116
-114
-119
-121
-117
-113
-108
-94
-74
-50
-37
-29
-11
10
28
41
52
61
65
57
50
42
36
30
33
39
41
41
47
58
65
67
68
75
82
87
91
97
95
89
84
91
98
96
103
107
98
91
96
102
99
92
86
71
54
41
30
22
3
-12
-19
-20
-29
-40
-42
-48
-60
-67
-64
-65
-64
-53
-36
-21
-3
11
20
34
57
77
96
111
122
136
157
169
167
161
150
146
147
140
131
115
97
81
67
54
47
45
41
34
27
26
25
26
36
58
77
85
96
115
132
138
146
165
180
187
192
205
214
220
224
239
257
274
295
317
335
353
380
407
426
435
444
438
428
396
355
329
290
240
194
146
95
43
-5
-40
-73
-94
-105
-92
-85
-68
-40
-5
38
87
153
214
265
321
384
441
494
545
579
596
610
629
641
621
568
528
517
509
467
414
371
321
260
190
119
52
-5
-49
-107
-177
-200
-210
-234
-277
-300
-315
-346
-337
-304
-286
-279
-259
-224
-182
-155
-136
-107
-74
-46
-26
-2
2
-12
27
71
85
75
71
58
23
-10
-19
-33
-59
-82
-95
-102
-131
-177
-203
-197
-200
-211
-232
-240
-241
-249
-247
-245
-240
-222
-203
-187
-165
-141
-125
-108
-82
-63
-60
-49
-25
2
5
3
10
15
18
18
17
35
48
51
54
61
67
71
84
96
110
125
143
170
207
238
244
258
275
312
349
364
385
420
443
444
448
451
454
450
443
447
459
451
444
442
430
404
368
322
312
316
311
289
266
251
232
205
173
151
144
146
133
119
127
128
122
105
87
54
66
81
55
42
72
68
52
58
99
108
89
107
182
228
186
145
153
142
107
42
-39
-103
-139
-188
-269
-343
-400
-459
-485
-493
-503
-501
-468
-430
-391
-338
-276
-227
-185
-123
-58
-15
10
40
74
85
81
70
51
30
-19
-30
-11
-1
-10
-3
11
7
4
6
16
17
25
26
-2
-29
-45
-75
-112
-150
-193
-230
-259
-306
-358
-404
-444
-492
-543
-584
-591
-610
-632
-636
-643
-663
-664
-677
-683
-688
-699
-692
-701
-699
-710
-738
-758
-746
-729
-725
-722
-715
-692
-664
-641
-640
-623
-597
-583
-565
-545
-517
-480
-457
-439
-406
-372
-344
-314
-283
-244
-195
-151
-113
-75
-37
-9
9
35
71
110
135
160
194
224
247
275
298
300
289
267
280
316
331
317
291
278
268
261
261
257
249
230
216
202
187
170
156
134
122
107
79
47
15
-16
-48
-79
-111
-144
-172
-196
-224
-252
-281
-301
-328
-361
-374
-382
-407
-440
-465
-493
-512
-519
-527
-547
-572
-583
-587
-599
-613
-622
-628
-639
-651
-670
-696
-717
-729
-726
-722
-721
-720
-711
-703
-691
-671
-632
-587
-523
-440
-340
-224
-103
20
154
302
466
633
797
959
1114
1261
1383
1478
1555
1630
1693
1750
1793
1810
1807
1785
1729
1634
1521
1394
1251
1118
986
841
690
548
412
272
129
-9
-140
-271
-386
-480
-563
-646
-728
-800
-863
-926
-977
-1013
-1039
-1055
-1066
-1060
-1042
-1011
-976
-939
-896
-840
-765
-677
-587
-502
-405
-298
-195
-94
7
109
199
276
344
396
430
458
498
532
555
573
596
596
562
511
477
457
411
348
296
255
203
147
105
84
79
96
128
175
223
268
320
385
449
501
562
633
714
797
894
1000
1104
1180
1234
1275
1318
1352
1380
1409
1432
1451
1467
1488
1496
1478
1441
1390
1322
1229
1120
992
843
669
468
246
19
-219
-465
-708
-931
-1138
-1327
-1489
-1626
-1737
-1839
-1928
-1985
-2015
-2026
-2015
-1982
-1932
-1874
-1805
-1726
-1649
-1571
-1489
-1396
-1304
-1214
-1124
-1035
-949
-863
-789
-728
-674
-626
-575
-530
-498
-471
-453
-443
-426
-407
-387
-354
-312
-265
-222
-173
-106
-31
38
120
210
301
391
478
565
646
719
786
841
885
920
957
1002
1030
1052
1068
1089
1107
1115
1123
1132
1138
1139
1153
1171
1174
1168
1171
1173
1170
1162
1162
1180
1192
1189
1186
1183
1172
1149
1141
1149
1148
1131
1125
1141
1135
1112
1091
1081
1064
1037
1024
1009
987
953
907
855
796
731
665
596
519
432
340
246
151
44
-73
-174
-279
-389
-463
-563
-622
-679
-757
-822
-867
-907
-951
-1005
-1039
-1049
-1055
-1023
-1003
-992
-996
-981
-936
-902
-891
-869
-793
-717
-673
-636
-584
-532
-486
-443
-396
-350
-304
-283
-240
-217
-175
-127
-105
-91
-66
-45
-39
-29
-32
-16
-5
30
52
51
45
48
66
78
89
89
87
104
111
116
124
141
161
171
164
166
178
184
181
180
181
188
195
193
199
217
236
231
235
256
268
271
282
298
308
333
351
379
386
389
387
415
462
469
453
468
460
432
440
480
491
463
437
439
443
436
424
413
395
355
340
342
350
324
309
301
304
318
304
290
286
290
292
277
264
271
239
221
259
267
243
225
223
210
181
180
179
161
125
106
85
52
20
-35
-60
-58
27
51
35
4
-16
0
-23
-54
-46
-35
-80
-118
-107
-109
-129
-146
-164
-154
-174
-181
-158
-156
-165
-174
-175
-176
-172
-173
-170
-170
-178
-202
-218
-214
-216
-233
-241
-256
-254
-239
-234
-243
-288
-297
-249
-235
-232
-199
-190
-178
-170
-166
-150
-136
-131
-123
-96
-73
-65
-63
-37
-30
-24
4
33
53
51
78
111
109
106
128
139
129
106
95
112
103
78
83
78
62
60
54
32
7
-6
-3
-7
-21
-35
-55
-76
-80
-77
-79
-77
-73
-87
-112
-121
-125
-136
-143
-156
-168
-165
-174
-198
-214
-194
-217
-292
-255
-199
-213
-235
-260
-286
-294
-322
-323
-350
-372
-348
-357
-369
-362
-341
-353
-384
-397
-391
-400
-415
-436
-418
-402
-449
-433
-372
-359
-376
-384
-381
-382
-404
-413
-430
-537
-527
-487
-595
-638
-589
-557
-598
-674
-709
-691
-648
-631
-598
-532
-449
-381
-303
-223
-151
-88
-29
28
86
107
126
162
192
206
216
221
211
194
189
187
171
138
114
105
86
15
-14
-47
-61
-46
-73
-106
-132
-122
-117
-142
-174
-180
-176
-179
-202
-225
-225
-221
-230
-249
-268
-291
-304
-295
-279
-300
-348
-357
-332
-334
-355
-371
-368
-364
-359
-355
-346
-373
-372
-328
-291
-280
-292
-287
-269
-263
-268
-256
-238
-242
-266
-274
-260
-257
-273
-275
-259
-243
-262
-272
-252
-230
-226
-196
-180
-192
-201
-192
-184
-198
-206
-192
-178
-172
-180
-189
-181
-163
-164
-180
-180
-160
-148
-161
-230
-200
-142
-134
-142
-138
-114
-112
-127
-125
-122
-128
-136
-146
-147
-150
-159
-182
-189
-174
-152
-139
-135
-129
-111
-94
-83
-72
-60
-45
-26
-6
11
30
50
62
72
87
101
108
108
107
117
126
124
123
127
120
111
109
109
108
106
107
98
83
70
64
51
41
37
33
32
32
21
3
-6
-14
-25
-23
-18
-16
-23
-29
-32
-15
-5
-9
-15
-20
-24
-26
-29
-36
-45
-37
-27
-25
-34
-40
-27
-17
-22
-23
-15
-4
-4
-6
-8
-6
-10
-7
-2
-5
-7
-4
-1
-13
-27
-31
-28
-30
-37
-47
-67
-77
-77
-77
-84
-88
-86
-78
-69
-64
-66
-69
-69
-61
-55
-58
-50
-36
-19
-6
8
21
33
44
52
62
71
82
99
110
117
117
124
128
135
143
152
160
161
160
162
172
176
169
167
172
171
160
149
138
136
135
125
119
123
132
132
127
130
133
134
136
135
140
135
135
128
120
108
95
91
96
91
66
44
49
47
41
32
25
19
12
7
7
2
-4
-4
-2
-6
-6
1
-8
-14
-16
-13
-28
-21
10
33
31
24
42
53
44
47
69
87
85
76
75
74
59
37
20
11
-2
-19
-38
-52
-53
-55
-60
-64
-67
-67
-60
-44
-31
-27
-15
20
49
60
73
100
127
152
175
206
221
226
245
270
273
268
274
286
278
290
319
319
309
304
299
299
294
277
276
272
270
261
250
235
214
199
180
163
162
165
164
145
138
152
163
151
142
141
142
124
97
80
61
52
37
22
18
8
-26
-53
-57
-63
-86
-109
-127
-127
-129
-156
-184
-194
-196
-209
-224
-239
-252
-265
-271
-273
-269
-267
-270
-264
-268
-261
-234
-235
-235
-218
-201
-200
-196
-196
-195
-194
-189
-181
-176
-178
-173
-162
-155
-154
-142
-132
-129
-134
-129
-124
-117
-107
-93
-78
-80
-85
-70
-42
-22
3
29
54
82
99
102
111
131
150
152
169
190
204
141
111
185
215
217
226
258
280
270
262
258
248
277
305
296
280
261
252
250
233
212
194
179
158
132
115
100
89
82
65
67
71
60
30
31
30
8
13
31
51
55
54
55
31
29
46
42
25
25
56
53
49
56
57
56
55
55
66
61
60
75
69
43
17
15
61
50
40
-9
-16
-1
-98
-91
-27
-15
-61
-98
-71
-74
-126
-178
-188
-221
-261
-246
-231
-244
-269
-253
-247
-258
-275
-279
-273
-286
-299
-322
-327
-317
-308
-301
-298
-284
-278
-285
-258
-225
-206
-204
-197
-182
-179
-182
-186
-186
-186
-193
-197
-199
-195
-197
-212
-206
-200
-201
-198
-219
-253
-202
-174
-179
-183
-167
-161
-175
-179
-171
-159
-153
-128
-102
-85
-68
-80
-86
-85
-100
-113
-113
-102
-12
94
156
179
196
239
291
309
299
254
187
101
-42
-193
-328
-443
-537
-609
-647
-654
-652
-646
-629
-611
-595
-563
-518
-466
-421
-381
-346
-317
-304
-294
-290
-297
-305
-310
-315
-326
-338
-349
-358
-370
-370
-345
-304
-252
-196
-121
-33
49
139
239
334
416
501
579
642
696
755
804
846
879
913
951
985
1013
1030
1035
1035
1025
1024
1020
1008
970
948
945
922
880
824
772
719
654
583
509
453
389
294
203
114
37
-39
-108
-178
-243
-323
-396
-467
-537
-585
-634
-687
-734
-769
-798
-829
-867
-911
-939
-958
-982
-1004
-1022
-1032
-1038
-1043
-1045
-1031
-1014
-1003
-1012
-976
-908
-845
-797
-750
-696
-638
-577
-507
-441
-374
-311
-238
-154
-78
-3
76
150
212
267
311
350
400
447
469
475
496
523
525
508
497
493
484
464
454
446
424
405
390
366
346
342
350
354
362
365
374
380
378
387
394
396
414
428
429
424
417
410
408
402
373
349
332
311
279
243
207
155
83
6
-72
-150
-221
-292
-358
-428
-496
-547
-600
-650
-697
-738
-764
-786
-802
-812
-803
-797
-796
-796
-791
-777
-755
-716
-694
-687
-687
-684
-680
-683
-693
-694
-677
-660
-656
-649
-633
-626
-630
-633
-623
-605
-600
-597
-579
-564
-548
-520
-499
-490
-479
-450
-407
-376
-342
-298
-256
-220
-175
-121
-71
-16
43
100
167
226
284
330
379
417
445
473
517
558
591
629
664
691
707
712
713
726
746
761
773
786
787
786
776
760
738
705
671
653
643
625
595
562
537
505
471
430
391
351
319
298
269
239
218
192
167
152
138
137
137
138
132
136
140
122
109
116
121
120
120
129
131
122
108
103
108
110
95
78
85
89
81
70
68
61
42
13
-11
-38
-59
-74
-87
-94
-110
-125
-137
-144
-149
-145
-149
-164
-165
-154
-149
-160
-167
-166
-163
-156
-143
-145
-153
-156
-157
-157
-157
-147
-139
-133
-114
-87
-74
-67
-52
-28
-19
-21
-16
3
24
37
59
89
98
91
91
101
107
108
99
91
66
61
67
67
72
72
78
84
91
84
94
109
117
123
145
160
149
140
147
162
168
156
142
154
161
159
161
171
176
168
169
177
172
164
165
169
167
157
158
162
160
150
138
139
137
131
123
132
135
129
134
145
140
143
154
163
167
174
186
186
172
161
147
125
106
93
79
62
44
36
34
14
-8
-23
-31
-38
-37
-39
-48
-62
-63
-70
-74
-63
-52
-49
-49
-41
-37
-32
-16
-2
9
20
35
53
61
77
92
114
124
130
143
148
151
143
141
152
161
159
163
170
169
174
192
207
213
221
231
249
252
250
251
262
265
271
285
291
283
283
284
279
268
255
242
232
220
214
215
209
197
183
179
181
163
161
170
172
158
155
161
163
155
147
142
141
135
127
125
125
129
126
120
112
103
98
94
99
93
78
72
73
74
68
63
63
57
50
45
43
38
30
25
14
5
3
8
1
0
-5
-13
-29
-42
-43
-46
-49
-52
-50
-35
-26
-27
-19
-7
-8
-16
-13
-1
-1
1
11
16
3
-11
-14
-7
-3
-6
-12
-13
-11
-17
-19
-29
-41
-48
-52
-56
-72
-91
-106
-109
-113
-130
-147
-156
-157
-164
-176
-172
-167
-163
-160
-156
-157
-157
-154
-147
-143
-140
-129
-116
-110
-113
-115
-112
-113
-113
-109
-99
-93
-92
-94
-94
-95
-93
-90
-97
-96
-87
-74
-71
-75
-76
-70
-56
-44
-43
-32
-6
10
17
18
30
48
59
76
95
112
123
134
148
151
146
141
145
147
141
137
132
116
110
108
91
61
40
26
6
-18
-29
-39
-57
-65
-67
-71
-77
-81
-81
-80
-81
-76
-71
-76
-80
-78
-70
-68
-69
-73
-73
-76
-86
-97
-107
-121
-126
-136
-142
-142
-147
-154
-159
-163
-177
-183
-185
-184
-183
-189
-197
-193
-184
-183
-188
-183
-167
-160
-150
-134
-123
-110
-90
-66
-46
-22
-5
16
39
54
62
69
75
87
107
122
125
132
149
156
148
144
155
165
164
162
170
184
194
200
200
200
202
206
206
203
199
202
211
221
227
228
224
225
226
216
214
220
222
223
230
226
216
213
220
220
206
199
195
187
179
178
176
170
169
165
156
156
163
164
150
149
155
149
138
131
132
133
128
115
99
84
74
67
61
42
17
3
-3
-15
-35
-42
-43
-44
-51
-54
-54
-56
-54
-49
-49
-49
-46
-38
-30
-16
-1
13
24
32
49
68
83
106
123
137
149
166
173
177
180
180
172
169
169
180
190
190
195
203
214
214
207
203
204
197
194
199
214
222
219
211
208
208
205
200
193
189
183
172
158
151
144
136
135
137
140
143
143
136
122
128
133
126
114
113
115
97
74
59
45
30
22
25
34
49
65
88
107
121
127
130
133
142
156
165
165
173
181
185
192
201
211
220
224
221
217
207
198
182
156
134
107
69
23
-9
-33
-58
-69
-72
-73
-86
-101
-104
-94
-93
-102
-94
-77
-75
-94
-104
-98
-100
-101
-106
-117
-128
-143
-162
-175
-184
-195
-211
-228
-256
-278
-286
-292
-304
-315
-321
-322
-323
-319
-305
-293
-279
-267
-246
-220
-200
-182
-158
-131
-112
-100
-79
-49
-24
6
34
59
80
97
113
137
162
182
194
202
218
229
234
248
258
264
270
270
263
254
242
219
201
185
173
159
142
129
110
80
57
41
22
7
-4
-16
-17
-49
-87
-69
-48
-43
-55
-42
-25
-14
-7
6
18
29
49
69
89
104
121
140
154
164
171
179
192
201
208
220
220
214
218
227
224
221
217
202
186
173
160
148
140
136
130
111
91
83
87
77
60
50
45
34
19
22
18
-6
-9
14
29
30
39
50
35
-1
-47
-111
-185
-261
-334
-409
-468
-508
-523
-532
-528
-490
-415
-321
-204
-50
121
289
453
617
775
901
1001
1071
1121
1140
1121
1073
999
894
763
627
487
327
164
-23
-224
-331
-403
-486
-592
-678
-727
-762
-787
-793
-766
-714
-651
-596
-525
-435
-345
-227
-93
41
167
302
429
496
565
638
679
678
686
710
696
652
608
566
522
457
384
296
198
103
23
-58
-161
-254
-336
-407
-515
-591
-622
-664
-708
-758
-796
-796
-785
-778
-753
-714
-684
-662
-651
-640
-634
-624
-624
-621
-616
-607
-580
-555
-538
-518
-498
-471
-458
-453
-447
-440
-434
-435
-426
-417
-419
-417
-419
-418
-426
-431
-423
-413
-413
-410
-406
-395
-390
-391
-390
-368
-336
-299
-268
-227
-185
-156
-133
-100
-64
-34
-6
24
50
75
97
124
141
161
185
199
221
250
277
292
301
314
325
334
344
362
377
381
382
382
383
376
365
351
346
336
327
337
346
334
321
319
307
284
264
263
260
254
241
229
219
204
186
165
151
136
132
134
136
133
126
112
105
95
87
75
66
56
41
39
48
45
19
-4
-10
-13
-16
-19
-10
-4
9
38
71
99
133
188
258
322
372
464
554
655
758
875
987
1086
1172
1201
1265
1338
1379
1391
1383
1363
1299
1236
1180
1110
1027
935
846
740
623
492
421
336
206
110
53
-31
-152
-263
-357
-430
-503
-592
-679
-758
-834
-918
-995
-1048
-1099
-1160
-1227
-1254
-1273
-1296
-1332
-1333
-1295
-1282
-1288
-1273
-1235
-1215
-1216
-1152
-1079
-1023
-991
-962
-920
-895
-877
-867
-843
-818
-785
-765
-759
-792
-810
-760
-729
-728
-722
-683
-644
-613
-579
-518
-436
-351
-288
-207
-75
37
125
225
358
495
624
736
841
953
1067
1177
1289
1401
1497
1582
1665
1753
1833
1894
1945
1989
2009
2008
2009
2013
1992
1944
1786
1652
1586
1468
1324
1159
1036
920
796
630
502
419
368
349
228
61
-58
-175
-318
-471
-597
-682
-726
-755
-785
-811
-844
-853
-870
-913
-930
-949
-1004
-1024
-1030
-1111
-1200
-1222
-1255
-1337
-1420
-1459
-1464
-1478
-1479
-1436
-1410
-1399
-1357
-1298
-1225
-1165
-1109
-1045
-987
-948
-921
-894
-876
-875
-856
-835
-841
-843
-841
-852
-878
-901
-915
-912
-915
-925
-921
-900
-890
-891
-875
-836
-803
-779
-736
-687
-639
-582
-517
-459
-415
-359
-298
-251
-211
-164
-112
-46
23
78
127
168
211
256
310
362
413
461
508
556
593
626
664
690
721
751
785
821
847
860
875
892
900
895
913
932
941
936
928
928
914
893
870
843
817
793
762
737
702
648
602
570
517
476
441
392
370
344
315
272
234
199
172
136
109
61
-14
-29
-31
12
17
-46
-52
-33
-69
-129
-129
-103
-8
7
16
29
32
53
44
65
74
89
102
70
56
106
125
132
107
139
160
137
118
97
103
103
81
38
32
33
-16
-16
-11
-17
-78
-92
-51
-35
-33
-26
-28
-51
-46
-46
-75
-93
-81
-85
-88
-140
-135
-107
-105
-78
-41
9
20
14
40
63
110
167
175
176
184
183
172
201
219
190
188
191
179
184
180
159
144
126
138
161
156
132
114
72
101
152
127
108
60
46
135
143
140
89
69
84
72
32
45
84
82
83
62
56
49
25
8
7
-66
-131
-40
13
-33
-90
-147
-165
-117
-130
-163
-152
-153
-146
-142
-158
-148
-159
-167
-186
-198
-173
-163
-160
-168
-173
-183
-185
-211
-224
-227
-234
-218
-211
-216
-220
-212
-207
-216
-235
-230
-217
-206
-206
-197
-226
-231
-194
-184
-185
-196
-181
-173
-178
-179
-179
-185
-200
-204
-216
-215
-222
-248
-238
-229
-232
-256
-275
-288
-317
-338
-333
-328
-335
-340
-348
-372
-378
-374
-371
-381
-389
-354
-330
-320
-323
-318
-307
-300
-298
-291
-290
-280
-258
-253
-242
-245
-246
-285
-279
-226
-203
-201
-215
-196
-190
-185
-181
-181
-181
-190
-190
-177
-171
-175
-168
-158
-155
-158
-156
-143
-157
-147
-105
-78
-74
-83
-74
-61
-42
-51
-75
-20
21
23
12
16
23
16
5
0
6
-3
-20
-37
-45
-53
-61
-71
-78
-76
-79
-113
-129
-115
-122
-126
-171
-178
-140
-127
-117
-111
-95
-81
-75
-75
-77
-70
-59
-59
-52
-39
-34
-30
-22
-7
3
-12
-11
14
34
38
41
41
34
32
42
54
60
54
52
58
60
62
59
49
47
53
65
70
78
82
94
113
119
126
126
122
125
128
134
147
158
155
153
153
155
160
156
154
164
169
163
158
169
184
181
174
179
192
193
187
192
200
202
202
198
193
189
190
189
196
200
189
166
149
138
130
118
104
89
89
90
89
84
80
71
65
60
61
68
72
71
61
51
48
32
22
20
21
19
10
6
6
-2
-11
-14
-13
-16
-22
-26
-27
-34
-45
-44
-43
-56
-63
-58
-52
-40
-31
-37
-41
-62
-93
-61
-99
-90
-48
-44
-48
-62
-62
-62
-74
-79
-84
-89
-109
-112
-108
-102
-103
-107
-113
-113
-114
-125
-132
-133
-124
-132
-139
-123
-121
-127
-152
-161
-155
-160
-182
-190
-189
-171
-166
-177
-198
-194
-188
-175
-140
-147
-156
-154
-158
-149
-143
-139
-129
-123
-124
-120
-128
-154
-141
-122
-97
-91
-100
-98
-79
-128
-232
-152
-65
-22
-39
-66
-47
-43
-52
-55
-52
-31
-29
-44
-60
-61
-55
-72
-79
-78
-78
-84
-92
-84
-83
-92
-91
-83
-76
-70
-64
-74
-89
-88
-75
-73
-78
-82
-72
-67
-70
-88
-105
-112
-101
-62
-51
-47
-41
-35
-27
-36
-46
-49
-59
-48
-43
-53
-56
-45
-40
-50
-52
-45
-43
-39
-37
-39
-48
-41
-15
6
-1
-20
-18
-5
-2
-21
-28
-19
-17
-34
-44
-45
-50
-51
-49
-38
-34
-41
-41
-35
-40
-39
-27
-17
-29
-51
-44
-32
-33
-42
-67
-41
-64
-83
-74
-62
-23
-14
-41
-6
36
15
-13
-12
15
-9
6
15
10
28
8
-17
-11
10
-14
-53
-25
-14
-44
-58
-37
-20
-49
-64
-76
-43
4
0
-20
-28
-15
-16
-25
-28
-25
-19
-21
-21
-38
-40
-29
-28
-39
-47
-43
-39
-36
-25
-17
-23
-18
-26
-14
13
20
25
22
24
26
41
51
33
15
18
35
46
41
31
26
38
45
41
18
-12
35
57
40
16
6
24
19
4
10
4
-6
2
10
11
4
-15
-23
-28
-34
-36
-24
-9
-4
-11
-18
-23
-27
-10
37
55
49
50
70
79
66
59
66
62
70
81
94
96
88
98
114
119
117
118
140
147
143
158
173
175
174
176
183
188
183
183
193
201
193
172
174
198
212
210
197
196
206
211
212
209
200
194
198
199
187
178
173
170
156
147
148
134
113
102
96
93
100
114
124
116
112
124
127
131
133
136
138
138
144
150
148
135
132
125
113
135
140
129
95
109
133
118
88
74
85
101
98
80
66
61
57
48
43
54
59
29
44
40
32
30
20
15
8
3
-9
-15
-11
-20
-24
-22
-19
-16
-25
-29
-24
-27
-42
-45
-42
-44
-29
-43
-59
-55
-49
-49
-45
-31
-20
-16
-15
-18
-20
-14
-14
-28
-12
17
28
15
-11
-22
-18
-12
-18
-60
-52
-10
10
9
4
7
3
2
-4
-17
-14
-21
-31
-38
-54
-55
-45
-49
-54
-54
-47
-47
-52
-59
-68
-63
-68
-80
-83
-84
-80
-86
-86
-63
-48
-59
-72
-76
-73
-68
-70
-66
-72
-90
-98
-104
-116
-137
-151
-151
-141
-146
-156
-154
-163
-175
-178
-163
-157
-161
-158
-149
-153
-159
-159
-155
-145
-140
-133
-127
-119
-110
-118
-135
-138
-140
-157
-170
-169
-168
-181
-193
-189
-182
-181
-178
-165
-154
-143
-114
-72
-41
-14
26
81
118
138
163
184
187
202
243
300
374
466
561
650
713
737
747
741
709
655
588
505
399
265
112
-49
-210
-340
-449
-553
-636
-707
-760
-798
-826
-838
-829
-825
-811
-801
-786
-741
-707
-677
-636
-586
-534
-474
-412
-348
-314
-296
-257
-197
-153
-136
-89
-19
44
89
136
193
257
322
383
434
478
531
581
610
627
656
698
713
720
738
753
759
766
784
805
804
803
809
820
828
823
827
831
840
829
802
791
775
748
721
700
680
658
627
598
557
503
454
407
366
319
279
245
214
177
142
109
65
32
19
-9
-52
-99
-120
-139
-174
-205
-226
-241
-259
-297
-314
-321
-340
-372
-398
-412
-426
-446
-463
-483
-506
-517
-514
-509
-506
-493
-473
-445
-416
-386
-356
-306
-254
-225
-191
-150
-122
-102
-58
-15
14
25
40
49
40
20
13
7
-5
-22
-27
-45
-73
-96
-97
-105
-124
-139
-127
-110
-92
-87
-80
-66
-63
-62
-63
-58
-40
-21
-4
21
49
64
75
105
126
147
165
187
206
209
219
225
236
237
242
260
268
263
267
273
268
251
238
239
246
258
262
276
280
269
266
275
289
269
261
293
342
349
329
324
325
312
289
272
269
266
258
241
224
191
126
143
180
189
157
81
94
162
176
158
148
166
147
134
136
148
154
155
172
200
212
209
192
181
168
168
173
170
164
166
151
130
113
87
65
65
68
58
38
17
11
-5
-17
-30
-37
-50
-68
-89
-103
-110
-121
-132
-146
-169
-194
-203
-197
-183
-178
-177
-177
-175
-179
-187
-191
-188
-183
-182
-192
-194
-199
-204
-208
-219
-233
-237
-227
-224
-229
-228
-222
-213
-217
-225
-250
-258
-233
-224
-230
-233
-231
-225
-230
-245
-240
-235
-227
-217
-209
-216
-212
-201
-231
-248
-219
-185
-176
-189
-178
-149
-132
-134
-139
-132
-117
-111
-94
-75
-56
-53
-64
-64
-62
-65
-70
-70
-68
-70
-70
-77
-114
-140
-136
-115
-120
-136
-145
-143
-151
-181
-209
-214
-211
-218
-232
-225
-215
-219
-232
-224
-211
-209
-218
-224
-215
-227
-242
-239
-222
-232
-249
-248
-241
-248
-261
-258
-252
-254
-256
-251
-246
-257
-272
-273
-260
-254
-252
-248
-238
-228
-224
-220
-221
-216
-207
-199
-198
-195
-183
-180
-172
-160
-160
-162
-155
-145
-143
-133
-119
-106
-91
-87
-79
-64
-57
-51
-49
-53
-54
-56
-52
-47
-49
-45
-38
-37
-38
-36
-31
-27
-21
-10
-4
4
13
28
48
61
74
93
112
126
141
157
165
167
169
182
193
196
198
204
204
201
201
206
210
203
195
195
192
184
178
173
165
155
151
153
153
150
148
144
134
132
140
140
141
143
144
139
130
121
109
106
108
114
109
97
84
68
59
55
46
41
45
49
50
52
67
78
78
82
92
93
90
90
104
112
97
81
66
50
30
7
-15
-33
-43
-58
-62
-57
-56
-61
-65
-59
-46
-29
-9
13
25
34
50
62
66
76
90
101
102
100
105
107
89
74
82
88
77
66
73
81
76
67
63
58
53
53
51
47
47
43
47
55
49
35
29
45
60
61
57
65
76
90
105
123
133
130
137
159
171
178
203
233
238
234
249
268
264
259
285
308
292
271
280
292
280
251
240
249
248
230
226
228
212
187
180
181
172
166
173
184
188
181
169
154
143
131
121
127
134
130
133
137
134
122
105
87
57
31
19
1
-39
-80
-119
-159
-200
-244
-280
-305
-317
-327
-330
-315
-298
-282
-260
-223
-175
-129
-93
-51
-13
19
50
72
88
99
103
103
117
122
116
98
86
60
34
11
-23
-48
-85
-88
-95
-120
-146
-169
-185
-201
-211
-210
-215
-210
-197
-182
-181
-188
-173
-162
-162
-162
-147
-138
-136
-125
-116
-107
-101
-93
-91
-88
-69
-55
-67
-65
-58
-28
1
1
-2
8
23
28
29
29
20
11
13
17
10
-16
-69
-75
-41
-23
-17
-26
-36
-37
-41
-52
-50
-36
-35
-41
-34
-36
-41
-36
-34
-49
-61
-67
-56
-59
-72
-83
-83
-75
-75
-64
-39
-24
-17
-1
16
20
24
25
32
37
37
35
35
32
12
17
10
-13
-27
-13
4
20
30
35
29
22
40
30
34
49
52
52
56
62
86
85
78
59
81
83
71
97
98
90
74
54
35
37
45
33
-13
-67
-139
-110
-12
4
-43
-86
-92
-63
-56
-76
-64
-61
-76
-87
-101
-100
-100
-68
-54
-82
-88
-84
-78
-84
-101
-103
-108
-127
-146
-145
-144
-159
-160
-166
-181
-165
-171
-121
-118
-184
-167
-140
-109
-114
-139
-138
-128
-114
-122
-130
-130
-148
-210
-210
-149
-144
-140
-115
-107
-119
-128
-112
-139
-135
-113
-110
-84
-78
-59
-60
-68
-86
-71
-25
-10
-26
-64
-118
-73
-16
15
42
20
29
37
22
10
23
31
57
83
86
104
89
69
40
15
44
74
89
101
121
130
140
145
148
143
153
152
174
170
152
94
-16
-62
6
58
66
31
19
35
22
10
-37
-37
-39
-25
-31
-89
-67
1
-8
-61
-90
-42
24
4
-42
-39
-42
-57
-35
-54
-49
-42
-74
-104
-76
-26
-32
-76
-75
-38
-45
-66
-85
-95
-43
-19
-26
-57
-99
-65
-46
-53
-45
-22
-15
-36
-38
-33
-30
-27
-25
-10
-11
-24
-18
-4
-17
-25
-20
-34
-86
-80
-52
-68
-108
-66
-37
-72
-88
-82
-54
-35
-5
-15
-15
1
-4
-46
-62
-107
-186
-143
-64
-23
-72
-133
-48
-1
-13
-73
-89
4
41
46
43
34
60
55
50
52
48
22
-16
-42
-83
-98
-103
-67
-70
-67
-56
-66
-99
-127
-106
-91
-72
-73
-101
-93
-54
3
-20
-39
14
63
69
30
28
98
116
82
70
106
154
135
134
171
192
176
160
173
158
141
214
320
273
206
217
262
292
275
262
237
257
304
309
286
266
259
256
289
276
245
234
225
278
303
256
243
330
348
276
211
261
359
283
160
152
284
261
117
178
270
286
190
120
147
201
166
94
78
83
134
90
49
-46
-83
-69
-82
-147
-214
-271
-208
-230
-279
-294
-301
-216
-215
-291
-330
-347
-429
-419
-375
-335
-269
-325
-329
-367
-329
-253
-226
-243
-320
-350
-224
-174
-236
-302
-232
-137
-144
-152
-173
-126
-88
-55
-22
-19
1
-5
14
-45
10
148
188
206
200
196
235
264
363
352
271
311
350
404
390
356
407
402
392
440
450
441
406
399
436
462
441
424
328
342
279
242
448
481
487
450
405
457
504
539
473
461
542
481
408
438
431
423
398
281
207
193
119
111
110
-113
-125
71
49
16
-54
-118
20
36
-75
-137
-107
-40
-28
-91
-168
-94
-9
59
98
68
132
182
253
301
265
353
443
456
471
488
561
586
594
585
581
574
542
620
651
566
531
549
534
350
338
328
317
577
547
445
478
532
504
378
448
516
381
369
363
237
219
173
209
84
-9
21
-10
-93
-162
-174
-264
-414
-489
-487
-369
-200
-341
-519
-423
-298
-381
-407
-293
-444
-536
-413
-342
-367
-327
-306
-341
-464
-445
-309
-366
-397
-398
-484
-420
-375
-372
-434
-474
-507
-556
-567
-517
-460
-522
-577
-539
-537
-589
-594
-518
-504
-496
-585
-605
-454
-450
-508
-423
-189
-77
-21
-2
34
40
85
226
318
279
298
355
419
464
466
477
509
512
507
453
478
498
472
408
354
377
351
254
148
62
24
-20
-103
-194
-277
-379
-491
-619
-749
-854
-958
-1064
-1145
-1232
-1316
-1368
-1409
-1449
-1483
-1500
-1483
-1485
-1495
-1473
-1447
-1393
-1351
-1321
-1230
-1158
-1093
-1193
-1091
-821
-724
-691
-707
-592
-450
-421
-408
-373
-303
-282
-292
-289
-286
-272
-277
-294
-300
-307
-324
-345
-364
-378
-396
-400
-394
-380
-367
-356
-332
-319
-310
-296
-268
-224
-196
-173
-155
-137
-113
-97
-71
-37
-11
13
44
71
83
79
92
111
105
107
116
118
120
110
94
87
82
72
54
46
60
74
66
67
85
96
110
127
143
154
169
186
199
221
240
242
254
259
245
222
213
211
198
181
163
143
119
89
55
19
-10
-25
-41
-67
-93
-112
-135
-162
-189
-213
-229
-239
-242
-252
-253
-247
-252
-254
-240
-235
-237
-228
-218
-218
-212
-200
-200
-206
-201
-181
-165
-155
-141
-127
-118
-106
-86
-75
-59
-51
-47
-35
-16
8
24
30
31
46
70
87
93
93
103
121
133
128
126
129
133
129
112
111
119
120
112
105
111
106
104
91
74
81
86
86
89
93
94
92
80
72
73
78
89
95
98
95
81
73
72
74
70
73
94
108
107
102
99
96
84
90
106
113
122
133
134
124
123
142
154
161
159
161
177
185
190
196
195
190
190
198
205
211
217
219
217
221
223
228
238
236
238
252
275
280
267
255
255
266
264
251
257
256
240
224
216
230
238
235
224
219
220
209
201
198
191
184
184
186
175
158
154
165
179
168
170
169
157
149
140
142
140
134
126
127
134
119
108
95
80
80
73
59
45
36
28
30
16
2
-10
27
-128
-32
79
-62
-74
-20
-27
-78
-51
-2
7
-18
-10
30
20
-8
-23
-25
-30
-47
-58
-64
-66
-75
-90
-100
-112
-120
-120
-132
-141
-135
-128
-130
-144
-160
-168
-183
-193
-197
-193
-196
-204
-206
-204
-211
-223
-238
-241
-235
-242
-241
-214
-198
-196
-193
-189
-206
-219
-214
-192
-181
-195
-185
-167
-180
-206
-213
-197
-182
-163
-147
-151
-158
-154
-142
-132
-118
-107
-85
-62
-69
-72
-58
-39
-22
-27
-37
-23
-1
-8
-20
-20
-16
-9
0
-1
-16
-11
8
11
2
18
30
8
9
22
26
9
-16
-17
-9
-15
-20
-10
-11
-11
-8
-19
-26
-37
-30
4
28
37
51
60
69
81
74
71
86
97
98
94
97
89
88
90
97
114
119
122
134
140
115
118
126
116
110
124
115
54
102
116
8
153
199
120
123
211
222
180
187
249
280
259
248
258
254
229
211
223
234
251
266
272
271
273
281
276
298
307
296
297
301
309
319
332
360
376
376
386
404
405
405
422
462
484
472
450
440
448
446
439
440
442
437
424
419
429
449
454
448
446
450
448
432
417
418
432
433
412
395
382
376
369
361
349
337
331
323
315
297
280
261
250
259
266
267
264
249
234
233
227
220
215
214
213
200
190
202
205
198
195
194
191
172
166
159
137
130
121
112
123
121
109
98
102
103
86
75
71
70
64
55
46
46
35
16
2
-1
5
9
-4
-25
-34
-29
-31
-42
-44
-36
-39
-47
-60
-69
-70
-73
-73
-77
-80
-77
-69
-74
-80
-78
-86
-94
-90
-80
-77
-83
-89
-78
-67
-67
-71
-71
-74
-83
-76
-67
-69
-80
-89
-83
-71
-67
-67
-61
-60
-59
-58
-53
-62
-53
-20
-16
-44
-49
-41
-28
-21
-37
-46
-21
-9
-52
-73
-67
-69
-45
-31
-70
-113
-114
-106
-114
-138
-140
-93
-82
-111
-121
-110
-92
-94
-92
-71
-58
-52
-34
-57
-95
-55
-8
-34
-86
-83
-28
-20
-46
-69
-64
-49
-62
-92
-85
-71
-101
-97
-78
-104
-143
-142
-127
-128
-122
-130
-139
-141
-139
-122
-102
-136
-170
-130
-107
-137
-143
-101
-113
-135
-98
-96
-105
-104
-111
-89
-61
-77
-103
-93
-77
-75
-93
-123
-125
-98
-77
-97
-132
-161
-98
-66
-142
-163
-103
-106
-126
-111
-122
-171
-126
-63
-139
-150
-96
-90
-108
-117
-99
-92
-108
-114
-110
-115
-131
-136
-121
-120
-134
-156
-164
-164
-180
-187
-188
-194
-195
-194
-218
-205
-148
-152
-181
-166
-148
-143
-136
-124
-109
-84
-44
-61
-86
-64
-33
-28
-42
-68
-65
-34
-38
-67
-75
-76
-79
-80
-91
-82
-58
-45
-28
-37
-68
-71
-52
-34
-37
-15
11
0
13
35
26
1
-35
-1
44
33
30
42
37
18
7
12
11
2
-4
7
7
-9
-14
-21
-22
-1
-4
-23
-33
-35
-41
-62
-66
-73
-82
-77
-69
-66
-75
-75
-59
-63
-83
-93
-95
-91
-90
-104
-116
-108
-74
-67
-71
-77
-73
-75
-86
-89
-85
-82
-80
-72
-67
-67
-73
-86
-95
-93
-96
-100
-103
-112
-111
-100
-95
-101
-103
-108
-117
-125
-131
-117
-111
-120
-116
-108
-107
-103
-89
-81
-86
-83
-76
-79
-73
-75
-71
-58
-47
-46
-42
-27
-39
-58
-50
-28
-22
-30
-31
-24
-16
-23
-34
-37
-43
-44
-42
-53
-52
-37
-28
-37
-40
-30
-20
-25
-36
-41
-36
-28
-21
-14
3
20
6
-15
-11
-9
2
6
13
30
29
26
17
8
22
38
38
40
59
71
53
33
32
34
21
11
11
4
-10
-7
8
-4
-25
-22
-18
-16
-14
-21
-34
-50
-56
-71
-75
-75
-88
-102
-104
-101
-114
-125
-134
-141
-150
-155
-156
-160
-176
-176
-159
-168
-180
-195
-198
-193
-188
-183
-177
-158
-130
-94
-67
-42
-46
-64
-59
-51
-32
23
104
212
316
382
421
458
495
516
507
476
446
402
305
192
108
24
-49
-86
-107
-139
-185
-233
-289
-343
-381
-416
-467
-524
-563
-586
-625
-671
-706
-746
-798
-843
-851
-846
-874
-905
-924
-960
-991
-1004
-1013
-1034
-1021
-997
-971
-932
-864
-770
-695
-615
-502
-391
-268
-153
-39
98
258
403
550
697
831
964
1074
1193
1295
1387
1455
1498
1547
1581
1600
1594
1564
1530
1489
1427
1355
1289
1206
1118
1036
955
869
783
699
623
537
436
345
272
201
126
51
-28
-94
-155
-218
-291
-362
-423
-477
-524
-560
-589
-619
-637
-657
-687
-716
-738
-757
-752
-735
-727
-726
-713
-666
-639
-614
-608
-592
-539
-487
-440
-383
-347
-327
-281
-207
-156
-105
-38
22
59
84
132
177
215
241
281
349
384
388
397
422
444
431
423
435
447
442
439
452
452
452
471
486
492
508
513
508
514
510
518
523
526
524
496
471
451
457
460
461
474
490
516
542
556
554
566
583
596
612
634
648
665
669
661
649
631
611
590
567
533
500
457
406
347
286
218
145
71
4
-55
-131
-207
-267
-331
-399
-466
-525
-564
-594
-628
-660
-684
-699
-715
-718
-718
-716
-716
-712
-692
-667
-639
-614
-587
-571
-546
-519
-503
-499
-501
-491
-484
-477
-470
-465
-432
-441
-467
-486
-487
-469
-454
-460
-479
-491
-494
-486
-487
-487
-463
-436
-406
-381
-363
-347
-315
-282
-253
-209
-160
-105
-81
-69
-37
18
77
116
150
183
215
240
266
278
297
328
359
377
390
397
419
443
455
461
461
475
491
496
492
485
479
479
467
455
454
451
447
433
421
410
401
401
391
380
373
364
347
319
288
267
262
265
260
242
233
224
200
175
164
152
140
135
126
112
94
78
74
67
49
38
38
30
23
6
-18
-25
-24
-30
-42
-54
-54
-55
-69
-83
-86
-88
-95
-99
-107
-112
-118
-127
-146
-155
-153
-164
-185
-201
-210
-209
-209
-217
-219
-218
-228
-239
-246
-244
-240
-259
-264
-260
-259
-262
-266
-272
-281
-286
-298
-310
-310
-294
-288
-297
-313
-327
-336
-349
-358
-357
-353
-343
-332
-337
-344
-344
-347
-341
-315
-299
-300
-286
-279
-305
-318
-334
-346
-337
-328
-320
-310
-301
-296
-305
-310
-298
-283
-276
-260
-242
-209
-197
-217
-229
-230
-215
-199
-185
-182
-183
-181
-184
-184
-169
-156
-157
-166
-165
-159
-151
-141
-130
-109
-102
-112
-106
-93
-91
-98
-95
-70
-49
-60
-77
-74
-65
-62
-65
-54
-37
-34
-28
-26
-26
-19
-7
-3
-4
11
20
33
46
55
64
66
65
66
69
76
87
103
122
118
91
79
79
84
82
87
91
87
79
54
44
36
27
5
-7
2
10
9
6
0
3
6
14
14
-11
-29
-30
-20
-17
-28
-29
2
15
9
14
22
33
49
63
77
84
99
110
116
124
134
153
168
172
175
181
182
185
179
174
176
179
180
183
185
193
203
182
186
187
153
150
160
186
209
216
205
192
189
180
182
186
194
201
197
185
173
169
166
173
182
198
204
208
216
220
210
206
206
221
239
245
250
262
270
274
270
273
277
271
269
273
267
251
232
218
213
208
193
173
166
164
156
142
136
140
135
115
105
101
84
74
65
65
45
21
18
22
22
5
-2
-11
-19
-25
-36
-49
-59
-68
-74
-76
-77
-78
-71
-59
-42
-30
-25
-29
-19
-15
-22
-10
11
25
22
12
3
6
17
-11
-12
1
13
18
19
12
-1
-10
-17
-10
2
11
28
35
42
50
57
64
75
92
106
119
130
138
142
141
145
139
143
150
149
147
149
146
139
142
148
133
116
107
110
114
115
120
125
126
113
93
76
70
63
66
75
69
64
58
47
34
36
30
11
-9
-14
-18
-29
-41
-43
-45
-55
-62
-72
-78
-78
-83
-104
-124
-133
-136
-147
-152
-140
-138
-158
-166
-163
-175
-198
-210
-214
-205
-195
-187
-185
-199
-215
-212
-198
-208
-220
-218
-204
-199
-202
-196
-187
-167
-155
-157
-147
-126
-103
-97
-86
-60
-27
-7
4
22
46
65
87
107
116
117
127
136
149
155
165
174
178
181
183
199
208
209
202
200
201
224
245
232
216
209
210
209
211
213
212
207
214
229
233
230
228
231
236
236
238
250
264
267
277
292
308
306
293
304
323
327
313
301
299
298
301
293
277
259
244
230
220
207
189
184
179
172
168
159
143
130
124
129
132
132
136
137
135
122
118
108
96
94
103
104
86
76
76
64
41
30
30
31
27
25
20
8
-8
-20
-27
-30
-37
-37
-24
-16
-20
-25
-24
-16
-14
-20
-13
3
22
28
32
32
31
28
35
35
37
47
56
61
67
79
86
101
112
122
129
137
134
125
142
149
148
149
158
164
161
159
166
164
155
163
179
177
173
176
184
188
192
195
197
190
180
177
178
186
194
195
193
192
195
193
192
187
184
184
181
182
192
200
205
204
202
202
199
199
196
203
215
221
218
216
218
217
211
215
216
204
210
221
223
229
232
225
214
208
212
218
211
202
195
190
185
176
158
144
132
122
107
87
69
61
51
34
16
-3
-26
-52
-60
-64
-76
-84
-94
-109
-123
-130
-137
-135
-135
-131
-128
-137
-153
-145
-139
-144
-155
-145
-129
-125
-131
-134
-133
-147
-154
-152
-151
-146
-141
-134
-133
-140
-151
-157
-165
-176
-182
-181
-190
-202
-212
-217
-232
-251
-255
-260
-263
-268
-276
-286
-293
-293
-290
-288
-283
-279
-279
-279
-274
-278
-284
-277
-259
-247
-248
-245
-232
-222
-219
-210
-206
-196
-185
-179
-173
-165
-157
-152
-139
-126
-119
-116
-113
-104
-94
-82
-71
-63
-61
-58
-53
-50
-47
-48
-44
-36
-33
-28
-18
-8
-3
0
6
16
26
31
39
43
40
49
58
49
30
33
37
26
15
14
18
4
-13
-18
-15
-22
-37
-41
-39
-46
-61
-73
-90
-107
-118
-126
-133
-152
-169
-184
-205
-230
-241
-260
-286
-286
-285
-295
-311
-326
-339
-355
-366
-376
-392
-406
-414
-423
-427
-431
-441
-447
-441
-447
-459
-466
-465
-465
-452
-429
-409
-391
-380
-365
-344
-319
-290
-259
-218
-169
-134
-101
-62
-27
5
36
77
124
167
206
246
285
317
342
378
413
444
476
511
537
545
549
552
546
550
570
582
582
579
585
583
578
576
566
556
554
553
538
526
516
507
488
471
466
452
423
402
396
386
355
322
294
276
243
198
172
154
130
91
47
3
-36
-76
-116
-155
-185
-219
-265
-312
-353
-388
-426
-467
-496
-522
-547
-569
-567
-563
-569
-573
-569
-554
-528
-487
-432
-372
-297
-205
-127
-45
48
141
242
350
463
546
625
770
926
1018
1063
1087
1115
1114
1078
1052
1043
1011
954
879
803
734
662
581
510
450
392
353
311
262
214
175
116
61
-35
-112
-153
-199
-273
-330
-385
-459
-542
-621
-680
-732
-782
-828
-853
-868
-882
-890
-884
-861
-830
-798
-755
-714
-681
-595
-516
-438
-365
-277
-190
-110
-23
57
138
207
252
288
298
302
308
314
284
240
223
213
119
33
24
17
-29
-104
-129
-145
-177
-205
-230
-258
-258
-261
-281
-330
-398
-465
-534
-611
-695
-771
-845
-918
-984
-1044
-1094
-1140
-1170
-1207
-1249
-1280
-1300
-1316
-1315
-1298
-1258
-1202
-1136
-1075
-994
-903
-797
-680
-561
-449
-333
-195
-56
71
182
288
379
457
523
570
612
641
642
622
589
544
476
403
330
251
175
96
24
-55
-128
-188
-245
-287
-323
-350
-363
-358
-340
-321
-300
-275
-245
-205
-168
-134
-92
-44
8
39
65
93
119
139
152
168
185
199
210
220
225
227
240
252
262
276
292
319
341
347
347
359
375
394
414
444
481
509
533
567
594
617
633
654
681
693
700
722
737
743
747
741
721
685
652
626
606
575
549
521
478
427
383
341
289
233
188
152
114
76
32
-24
-75
-114
-145
-176
-210
-248
-278
-295
-319
-353
-375
-388
-403
-401
-394
-396
-403
-405
-396
-384
-380
-371
-353
-333
-314
-300
-283
-268
-257
-241
-216
-202
-196
-177
-149
-140
-132
-109
-83
-59
-41
-21
8
44
69
104
147
184
215
239
267
270
272
277
296
315
333
356
367
374
379
389
405
423
437
449
470
488
505
513
518
521
527
537
541
547
542
545
557
564
554
533
526
536
533
521
507
502
486
465
452
441
422
410
405
405
397
385
376
365
344
329
325
316
297
277
292
299
289
280
278
267
263
275
284
285
283
280
276
274
266
251
232
213
190
166
125
73
54
36
8
-22
-105
-173
-150
-147
-169
-193
-206
-229
-278
-309
-288
-251
-255
-265
-272
-278
-251
-228
-207
-200
-191
-188
-164
-139
-125
-141
-175
-137
-87
-49
-52
-39
-26
-24
-19
-19
-14
1
3
6
21
36
40
41
46
48
48
51
53
61
38
1
25
71
73
49
45
60
63
42
26
23
7
-13
-14
-26
-45
-57
-75
-94
-97
-109
-134
-154
-170
-185
-195
-202
-214
-226
-242
-244
-248
-258
-261
-268
-292
-367
-360
-317
-318
-307
-318
-313
-310
-338
-372
-372
-356
-356
-380
-387
-405
-467
-435
-402
-376
-400
-407
-362
-338
-331
-337
-303
-270
-325
-367
-295
-264
-264
-256
-228
-209
-206
-214
-205
-182
-195
-188
-158
-157
-165
-199
-186
-160
-163
-171
-197
-200
-163
-152
-170
-241
-225
-142
-120
-148
-157
-125
-109
-116
-123
-105
-77
-117
-181
-121
-79
-82
-128
-124
-70
-46
-48
-58
-56
-58
-66
-87
-91
-85
-74
-70
-65
-71
-96
-89
-71
-65
-68
-120
-176
-138
-49
-9
-40
-83
-82
-78
-70
-67
-65
-44
-41
-47
-56
-57
-54
-94
-133
-85
-22
-33
-69
-83
-74
-73
-103
-121
-124
-145
-139
-137
-136
-107
-121
-153
-132
-94
-82
-102
-119
-111
-104
-159
-157
-104
-73
-86
-109
-101
-98
-104
-107
-99
-81
-86
-97
-87
-70
-70
-82
-93
-88
-80
-88
-88
-80
-80
-79
-81
-88
-89
-94
-83
-70
-74
-76
-76
-64
-69
-83
-90
-74
-27
-3
-10
-19
-22
-15
-8
1
10
1
-20
-24
-14
-3
4
-16
-16
-10
-8
-1
-5
-5
-12
-24
-14
1
10
13
16
29
44
44
38
35
32
41
52
62
71
86
91
85
60
55
102
138
119
102
123
141
154
157
163
168
164
161
163
162
130
139
166
159
137
116
105
115
121
108
82
58
66
86
67
54
54
30
28
32
4
-24
-5
25
26
7
-23
4
27
-2
-62
-100
-64
-45
-49
-77
-91
-110
-95
-28
-1
-2
-18
-32
-76
-101
-63
-18
4
-57
-88
-125
-162
-128
-118
-61
-71
-84
-70
-94
-73
-32
-5
17
2
20
16
-34
5
24
-40
-35
5
4
-78
-117
-82
-40
-78
-109
-100
-108
-181
-231
-243
-254
-241
-171
-137
-194
-226
-211
-142
-134
-191
-150
-107
-96
-127
-196
-264
-239
-152
-114
-124
-155
-180
-185
-173
-187
-216
-211
-198
-175
-179
-225
-219
-184
-158
-155
-159
-140
-163
-206
-194
-189
-180
-176
-178
-177
-173
-177
-158
-187
-172
-167
-146
-127
-147
-156
-168
-154
-136
-171
-191
-145
-124
-131
-146
-143
-116
-132
-160
-181
-190
-155
-124
-75
-89
-74
-37
-44
-65
-54
-54
-91
-40
-8
-24
-74
-22
52
33
-28
-64
1
50
21
-3
12
42
40
20
31
51
58
33
31
80
75
46
23
35
55
51
29
-5
9
33
17
-6
-74
-27
33
-2
-56
-68
2
23
-14
-14
6
1
-20
-29
-6
19
10
7
22
45
39
8
12
39
48
32
14
23
16
-35
-10
26
21
-23
-52
-46
-40
-37
-50
-73
-68
-87
-87
-52
-56
-64
-64
-31
-16
-43
-30
12
3
-45
-65
-10
-15
-72
-49
-2
22
-9
-26
-5
1
-8
-18
-19
-7
-3
-14
-28
-30
-35
-44
-43
-40
-37
-34
-24
-17
-42
-55
-44
-42
-50
-51
-35
-29
-42
-51
-61
-67
-61
-51
-45
-56
-59
-54
-44
-33
-41
-46
-40
-22
-14
-38
-55
-52
-71
-54
-18
-16
-11
-6
-4
8
14
8
17
36
48
31
12
25
42
40
29
33
41
39
23
12
10
13
13
16
25
15
18
28
24
29
28
25
26
28
44
57
65
66
49
50
63
54
3
45
86
86
71
55
65
68
48
28
28
48
49
34
26
28
27
23
18
18
24
28
27
24
20
22
23
18
13
8
4
6
15
16
9
8
7
-3
-17
-36
-52
-51
-47
-50
-64
-78
-88
-100
-113
-126
-130
-134
-136
-138
-137
-132
-132
-144
-156
-156
-151
-145
-136
-126
-121
-122
-129
-132
-139
-147
-131
-119
-125
-127
-123
-127
-142
-159
-173
-177
-172
-175
-185
-203
-222
-230
-230
-232
-242
-245
-260
-260
-258
-260
-271
-293
-306
-309
-311
-316
-328
-331
-338
-336
-340
-354
-363
-363
-361
-373
-395
-393
-379
-377
-393
-407
-410
-411
-410
-411
-405
-394
-393
-374
-334
-328
-339
-342
-324
-293
-269
-239
-203
-163
-125
-102
-95
-94
-96
-97
-90
-59
2
78
151
222
283
331
356
387
429
449
435
383
311
226
141
63
-12
-64
-96
-117
-140
-193
-252
-305
-358
-365
-400
-497
-558
-591
-628
-689
-742
-784
-808
-809
-827
-845
-849
-832
-814
-818
-807
-802
-799
-765
-707
-631
-565
-480
-388
-299
-197
-85
36
134
227
342
463
560
644
745
847
937
1013
1079
1152
1234
1307
1371
1441
1505
1564
1608
1640
1656
1663
1668
1666
1657
1636
1597
1536
1473
1407
1332
1236
1154
1091
969
844
720
613
515
408
289
179
93
3
-98
-189
-266
-343
-411
-472
-527
-567
-602
-632
-654
-670
-664
-663
-671
-674
-656
-627
-610
-587
-554
-517
-484
-450
-411
-374
-332
-281
-234
-175
-120
-76
-34
7
57
108
152
193
238
280
307
339
383
421
450
460
463
486
506
516
525
550
568
589
609
626
658
703
739
770
815
869
918
948
975
1004
1030
1053
1071
1084
1087
1082
1077
1052
1013
962
890
814
745
672
583
478
377
274
156
33
-81
-189
-291
-393
-484
-562
-633
-701
-764
-817
-856
-886
-904
-915
-929
-932
-913
-884
-865
-842
-809
-772
-739
-700
-662
-621
-591
-572
-554
-534
-523
-516
-508
-486
-468
-461
-455
-449
-448
-452
-463
-469
-470
-464
-463
-464
-460
-458
-460
-455
-441
-431
-424
-408
-384
-348
-315
-290
-270
-243
-210
-178
-137
-83
-41
-3
49
92
134
175
215
253
289
327
362
394
422
448
468
487
503
511
516
526
534
543
539
523
515
522
528
530
529
523
518
507
488
467
457
450
445
426
407
401
389
366
341
337
330
314
295
278
260
245
239
226
208
197
183
165
148
131
119
102
96
86
69
50
35
21
16
16
5
-1
5
11
7
4
-7
-18
-31
-46
-52
-63
-71
-73
-78
-94
-104
-116
-134
-142
-142
-138
-147
-156
-163
-174
-181
-187
-190
-192
-193
-200
-203
-209
-215
-224
-233
-233
-237
-244
-256
-266
-273
-270
-275
-288
-294
-286
-284
-291
-301
-296
-281
-286
-288
-283
-275
-272
-275
-282
-292
-292
-284
-274
-265
-257
-255
-258
-253
-251
-256
-253
-235
-224
-225
-230
-241
-250
-250
-243
-238
-228
-223
-225
-229
-225
-224
-227
-237
-237
-223
-214
-216
-221
-224
-229
-233
-243
-245
-230
-209
-204
-192
-179
-197
-204
-188
-170
-178
-174
-169
-158
-151
-149
-134
-120
-123
-123
-113
-107
-106
-92
-78
-76
-72
-51
-28
-26
-16
6
26
40
53
83
108
120
137
169
200
205
200
205
217
223
243
257
245
242
253
272
285
300
326
329
326
327
332
339
339
336
343
367
388
387
382
392
405
410
407
414
431
438
445
454
463
469
478
488
486
478
475
475
476
477
486
495
484
475
465
460
461
460
454
440
426
417
413
407
399
396
380
357
345
333
312
288
271
260
241
220
202
183
173
158
140
127
117
104
87
69
57
45
38
40
33
21
13
9
8
1
-10
-11
4
14
9
9
15
3
-10
-7
1
8
6
9
22
38
36
38
42
48
61
66
76
85
90
85
93
100
98
106
121
131
132
123
118
119
115
104
91
92
96
87
65
59
56
38
23
21
24
8
-8
-15
-13
-15
-23
-24
-17
-12
-14
-13
-9
-11
-12
-3
2
0
-7
-11
-8
-15
-15
-4
-3
-11
-9
-8
-19
-28
-29
-30
-38
-41
-36
-40
-52
-60
-57
-56
-62
-79
-91
-88
-87
-80
-71
-65
-59
-52
-48
-43
-37
-30
-11
5
13
17
16
13
15
12
6
8
10
0
-16
-22
-27
-34
-41
-45
-46
-45
-37
-34
-42
-33
-19
-10
0
14
28
39
50
61
69
77
81
77
76
81
78
63
42
31
20
3
-15
-31
-43
-68
-98
-113
-115
-117
-124
-137
-139
-133
-131
-128
-123
-116
-103
-86
-66
-53
-42
-31
-14
9
27
45
63
69
75
76
72
73
74
77
81
85
80
75
61
52
42
43
42
42
45
42
37
26
19
18
23
24
28
41
56
73
77
73
80
91
104
110
128
144
155
160
170
189
195
195
205
210
208
209
216
213
207
203
205
204
200
198
198
197
192
191
188
183
175
162
150
151
146
142
147
152
144
136
133
136
140
137
132
125
120
111
101
97
92
77
62
57
54
41
33
42
41
33
25
17
13
14
7
3
-1
-2
1
6
3
-5
-17
-24
-14
6
22
28
34
42
44
41
45
49
57
63
71
80
76
67
58
54
50
52
52
47
43
31
20
4
-15
-31
-40
-46
-55
-71
-85
-86
-96
-116
-128
-133
-135
-146
-159
-172
-176
-173
-176
-175
-179
-184
-199
-213
-218
-220
-217
-211
-206
-204
-203
-210
-209
-210
-214
-216
-212
-201
-197
-199
-206
-213
-223
-234
-240
-242
-242
-239
-243
-254
-260
-260
-256
-260
-268
-267
-275
-274
-274
-285
-291
-293
-295
-293
-283
-274
-267
-261
-263
-264
-261
-249
-261
-268
-231
-203
-199
-198
-174
-151
-143
-136
-114
-93
-86
-83
-71
-57
-42
-25
-11
5
20
25
23
21
30
35
36
44
51
55
56
61
62
64
65
64
77
87
90
91
87
86
87
92
104
113
117
123
128
138
146
147
143
144
157
170
176
183
189
190
185
182
188
204
215
220
221
226
231
233
217
202
192
188
187
185
177
165
163
133
86
113
134
115
82
61
74
68
40
24
31
40
22
-2
-12
-11
-20
-33
-38
-39
-49
-59
-57
-53
-63
-70
-72
-69
-75
-80
-85
-91
-104
-123
-131
-124
-124
-132
-153
-173
-176
-183
-195
-199
-193
-194
-203
-214
-210
-215
-233
-239
-242
-241
-243
-243
-243
-250
-252
-248
-246
-259
-259
-227
-204
-195
-198
-192
-180
-178
-193
-196
-178
-158
-147
-132
-114
-103
-94
-91
-91
-88
-80
-68
-63
-69
-83
-90
-82
-72
-72
-78
-77
-71
-73
-73
-63
-58
-50
-38
-37
-28
-19
-22
-26
-21
-14
-17
-24
-25
-24
-21
-10
-7
-17
-19
-14
-8
-21
-30
-31
-36
-37
-25
-15
-9
-11
-5
9
17
15
23
30
29
37
50
55
55
54
51
59
67
68
64
69
76
82
73
60
58
68
80
92
99
105
101
89
75
67
52
46
59
67
59
50
51
49
36
12
10
21
22
15
19
21
14
7
9
6
-1
-7
-12
-3
5
-19
-37
-17
2
4
-9
-10
6
10
-6
-19
-12
-8
-22
-37
-43
-44
-46
-52
-58
-74
-92
-102
-112
-125
-133
-149
-161
-158
-161
-169
-164
-163
-169
-178
-183
-185
-184
-183
-186
-184
-186
-200
-207
-223
-255
-262
-263
-274
-291
-310
-320
-343
-366
-382
-401
-414
-425
-432
-439
-450
-464
-480
-501
-515
-519
-525
-535
-544
-551
-556
-562
-575
-586
-586
-586
-591
-595
-588
-591
-599
-596
-583
-568
-558
-544
-524
-500
-473
-436
-403
-378
-353
-320
-289
-262
-231
-195
-148
-90
-53
-22
26
78
117
146
180
227
283
329
381
435
480
508
519
546
582
610
627
658
702
721
723
718
716
721
728
731
726
719
710
702
690
670
646
627
622
612
595
575
550
531
512
490
463
430
410
391
363
332
308
291
274
253
234
218
217
221
225
223
222
238
248
241
251
285
318
344
382
432
484
541
607
683
749
816
888
967
1041
1080
1106
1132
1138
1132
1121
1098
1047
1030
1033
1006
966
920
872
825
774
741
715
667
623
586
572
540
467
421
393
354
296
158
109
92
13
-110
-241
-341
-445
-541
-645
-749
-838
-946
-1022
-1080
-1155
-1204
-1205
-1189
-1225
-1260
-1232
-1170
-1177
-1192
-1143
-1090
-1046
-1057
-1044
-985
-959
-936
-908
-874
-862
-841
-812
-785
-768
-752
-720
-693
-688
-687
-659
-623
-588
-560
-510
-466
-385
-273
-176
-63
61
204
362
520
671
811
935
1045
1134
1199
1236
1233
1219
1183
1118
1028
930
829
676
576
480
370
249
107
-17
-152
-269
-357
-437
-523
-596
-654
-713
-745
-753
-733
-679
-657
-643
-620
-624
-613
-560
-554
-557
-520
-461
-446
-458
-483
-417
-319
-278
-239
-156
-43
31
77
158
225
246
274
374
423
400
388
389
372
298
215
171
125
33
-104
-126
-152
-303
-410
-443
-459
-539
-617
-643
-637
-652
-705
-739
-738
-712
-678
-647
-627
-617
-611
-623
-588
-552
-574
-566
-509
-427
-428
-464
-439
-384
-347
-354
-351
-317
-256
-179
-169
-159
-110
-42
3
26
76
143
196
235
275
324
374
409
449
499
549
584
611
644
675
698
709
723
745
765
774
768
758
750
735
716
694
680
662
637
609
569
524
478
437
385
336
299
261
206
149
100
39
-16
-71
-117
-159
-200
-235
-268
-292
-313
-327
-353
-366
-367
-370
-370
-372
-371
-366
-361
-338
-322
-298
-277
-259
-237
-220
-202
-186
-170
-157
-150
-143
-129
-115
-106
-99
-95
-83
-79
-64
-93
-113
-86
-48
-59
-100
-81
-53
-48
-45
-30
-18
-35
-35
7
33
38
37
54
88
73
55
95
124
130
135
159
195
166
142
122
151
204
170
149
141
144
129
109
111
134
146
140
105
44
40
119
172
157
137
165
238
241
211
213
220
183
205
283
286
233
211
260
300
283
257
265
290
285
254
170
213
304
291
275
267
251
126
71
219
340
312
225
278
373
349
263
230
331
357
346
350
385
439
399
361
380
392
387
370
348
353
314
319
291
243
279
244
204
197
206
214
109
61
164
222
119
44
127
165
131
84
95
104
112
113
131
149
140
106
80
-20
7
130
93
36
-1
14
21
-15
-47
-55
-41
-56
-114
-132
-135
-131
-128
-140
-166
-178
-203
-220
-207
-205
-214
-216
-221
-230
-273
-314
-297
-296
-272
-210
-204
-242
-260
-230
-206
-215
-229
-223
-213
-213
-230
-249
-250
-241
-262
-266
-268
-259
-238
-243
-233
-227
-229
-224
-212
-199
-194
-188
-173
-165
-146
-127
-118
-115
-105
-85
-82
-88
-89
-74
-63
-57
-56
-62
-66
-65
-54
-49
-51
-46
-47
-38
-28
-25
-16
-21
-24
-13
-14
-26
-31
-26
-33
-46
-37
-23
-22
-30
-29
-30
-25
-65
-115
-63
0
19
11
-1
3
12
20
31
34
43
44
53
60
47
45
48
56
66
60
44
20
16
16
8
-3
-1
8
2
8
16
9
3
3
9
9
6
5
7
14
1
-7
-20
-35
-14
-4
10
1
-15
-38
-37
15
26
8
-29
-19
35
41
7
-118
-111
-1
32
18
14
35
48
20
2
4
3
-5
-18
-15
-5
-6
-10
-12
-24
-26
-19
-20
-28
-30
-29
-37
-36
-15
6
-8
-16
-7
5
7
-4
-10
-3
18
23
17
23
38
31
23
32
45
44
28
27
34
28
23
22
31
37
18
26
2
-4
33
37
34
22
20
30
37
51
54
55
52
43
35
26
27
26
23
20
18
22
17
4
4
4
-3
-9
-10
-14
-22
-27
-33
-25
-19
-45
-52
-44
-38
-44
-56
-48
-38
-40
-45
-43
-40
-46
-43
-41
-39
-31
-38
-43
-33
-17
-19
-28
-26
-6
13
9
8
15
26
29
29
28
28
33
29
23
32
37
28
15
15
22
18
12
16
27
31
24
4
-12
-19
-15
-8
-8
-1
14
14
6
1
12
29
21
21
40
53
55
45
37
36
41
40
36
44
47
47
44
41
41
35
29
39
46
38
36
31
28
29
23
23
16
18
17
10
6
4
3
-9
-24
-30
-20
-18
-27
-22
-9
-12
-17
-8
-8
-12
-11
-16
-18
-14
-9
-10
-8
2
-3
-5
-10
-22
-31
-41
-39
-26
-22
-23
-27
-24
-18
-17
-19
-19
-14
-8
-1
0
-4
-10
-19
-21
-19
-16
-13
-5
-4
-11
-19
-31
-42
-48
-53
-43
-27
-29
-26
-22
-15
-11
-18
-19
-12
1
10
6
8
16
15
9
8
16
13
7
7
3
-7
-20
-25
-28
-25
-26
-23
-21
-6
-7
-24
-24
-18
-13
-22
-18
-9
-4
-5
-10
-16
-28
-31
-26
-21
-18
-19
-24
-16
-10
-23
-22
-18
-17
-37
-41
-32
-18
-18
-34
-22
-3
-9
-26
-29
-16
-8
-9
-5
-1
-3
6
11
-7
-23
-22
-21
-29
9
16
-13
-28
-32
-26
-42
-58
-59
-59
-64
-67
-61
-55
-63
-66
-58
-51
-49
-42
-35
-27
-22
-38
-43
-42
-44
-36
-35
-19
-6
-11
-17
-11
-3
-6
0
8
7
12
20
15
15
6
6
18
20
30
33
30
29
35
42
39
37
23
22
32
25
22
26
33
40
52
52
45
52
63
73
82
92
104
113
122
133
131
140
159
173
174
172
181
180
175
174
172
173
179
170
183
197
208
197
180
184
192
185
173
174
172
177
177
166
150
139
141
142
152
145
137
138
138
136
127
129
129
121
120
129
145
150
146
146
150
150
149
140
133
135
142
141
121
106
104
101
92
80
73
73
54
36
34
32
27
21
24
22
14
19
28
30
19
17
25
30
17
8
8
11
13
11
11
6
7
4
6
21
22
2
-15
-22
-19
-12
-10
-17
-28
-44
-51
-52
-40
-28
-23
-28
-29
-27
-19
-4
-3
0
10
14
1
-13
-11
-5
-15
-18
-15
-10
-6
2
8
-1
-4
6
13
19
19
17
12
4
-2
8
14
6
-1
1
13
16
16
17
29
30
8
2
17
23
29
42
55
61
56
47
43
40
36
26
26
36
42
38
36
36
31
29
31
31
29
16
12
8
4
4
1
-9
-22
-33
-35
-26
-29
-39
-39
-36
-40
-43
-53
-56
-58
-61
-59
-52
-58
-72
-76
-77
-79
-87
-88
-66
-62
-76
-74
-72
-65
-66
-64
-56
-38
-18
8
36
51
63
69
86
114
182
263
333
405
474
519
528
516
497
465
430
390
330
247
149
38
-79
-193
-293
-385
-519
-650
-752
-839
-920
-994
-1045
-1086
-1123
-1140
-1151
-1167
-1181
-1178
-1162
-1149
-1128
-1102
-1067
-1032
-1014
-992
-957
-910
-869
-836
-785
-717
-640
-568
-488
-386
-282
-179
-44
84
189
283
383
483
569
650
734
817
888
945
986
1023
1054
1081
1099
1115
1130
1149
1165
1176
1180
1171
1164
1172
1169
1156
1155
1169
1170
1151
1130
1117
1109
1101
1087
1067
1044
1016
973
915
856
803
743
673
607
535
444
342
244
150
41
-76
-181
-281
-377
-475
-582
-678
-758
-827
-894
-955
-1013
-1054
-1076
-1090
-1110
-1113
-1098
-1070
-1033
-1002
-975
-928
-862
-809
-754
-687
-617
-560
-508
-445
-382
-325
-282
-234
-188
-156
-128
-101
-86
-71
-74
-73
-63
-61
-72
-91
-104
-109
-110
-113
-104
-113
-129
-121
-101
-79
-63
-48
-38
-19
6
23
41
67
113
151
169
186
209
244
268
282
300
334
368
385
390
393
413
439
463
470
486
495
508
521
526
538
545
557
571
576
584
590
593
586
577
573
568
564
558
549
536
535
538
543
542
531
522
507
491
484
476
472
459
449
448
440
432
421
404
382
361
345
331
325
317
299
283
260
235
210
199
185
176
171
160
143
125
114
104
94
86
76
67
61
52
41
23
9
5
2
-3
-12
-20
-25
-29
-36
-50
-60
-63
-69
-72
-71
-71
-72
-72
-76
-88
-94
-94
-107
-122
-124
-117
-126
-139
-143
-156
-170
-180
-183
-190
-200
-198
-203
-209
-224
-243
-241
-236
-237
-245
-242
-245
-252
-256
-247
-240
-242
-240
-237
-234
-235
-228
-219
-204
-182
-168
-164
-162
-147
-139
-140
-137
-127
-111
-102
-95
-80
-73
-76
-76
-80
-78
-77
-75
-73
-73
-74
-77
-75
-75
-80
-79
-80
-84
-84
-87
-93
-91
-85
-82
-99
-84
-53
-33
-26
-23
-6
-1
-8
-9
-5
-1
5
15
21
18
6
0
-1
2
4
7
16
20
19
8
10
11
9
10
10
19
24
15
7
9
16
16
2
0
5
6
2
-2
-10
-19
-30
-31
-38
-59
-71
-74
-75
-88
-106
-104
-111
-124
-138
-138
-133
-140
-143
-138
-143
-155
-161
-162
-166
-180
-187
-181
-179
-182
-179
-169
-166
-173
-181
-180
-183
-186
-190
-189
-184
-185
-187
-194
-195
-186
-173
-159
-152
-157
-157
-158
-161
-153
-141
-134
-129
-124
-128
-142
-154
-158
-161
-164
-164
-158
-148
-140
-145
-156
-153
-144
-147
-148
-140
-129
-125
-135
-140
-133
-131
-132
-131
-125
-115
-107
-101
-99
-83
-69
-62
-60
-60
-59
-55
-49
-50
-50
-43
-30
-30
-23
-14
-14
-15
-17
-6
6
13
19
22
19
19
23
30
38
43
45
50
64
78
76
72
75
82
93
97
104
126
142
132
110
104
109
113
118
128
141
141
141
142
144
147
137
119
123
136
135
120
107
101
97
85
77
83
84
73
69
74
66
49
30
35
40
28
21
24
33
34
16
4
-2
-3
3
8
15
20
22
24
25
26
29
38
34
19
16
33
39
38
35
35
30
23
17
16
15
14
18
19
23
19
5
-9
-7
-8
-17
-21
-21
-17
-32
-49
-49
-53
-66
-72
-72
-74
-78
-68
-58
-58
-65
-72
-71
-67
-69
-76
-84
-96
-110
-120
-132
-140
-141
-135
-124
-110
-90
-55
-19
9
37
82
134
173
215
262
301
326
342
345
337
322
301
274
246
221
183
138
93
48
8
-26
-52
-72
-78
-78
-79
-88
-82
-61
-37
-9
17
36
57
77
107
140
173
198
216
224
234
241
249
263
259
255
249
247
238
224
204
185
171
163
152
126
91
69
57
34
7
-7
-18
-30
-40
-55
-63
-69
-82
-94
-96
-86
-79
-81
-76
-64
-55
-59
-69
-75
-72
-66
-62
-56
-53
-50
-51
-47
-40
-44
-46
-38
-31
-34
-35
-21
-17
-21
-19
-18
-17
-15
-4
-2
-5
-4
2
4
4
7
15
21
23
27
42
55
49
31
27
26
15
5
-8
-18
-25
-44
-57
-62
-65
-82
-103
-113
-113
-107
-109
-109
-111
-118
-123
-120
-111
-115
-117
-114
-103
-94
-83
-81
-83
-77
-69
-73
-82
-75
-67
-63
-60
-50
-49
-60
-79
-88
-73
-65
-58
-59
-54
-45
-53
-71
-76
-64
-56
-51
-52
-59
-73
-85
-89
-92
-85
-79
-77
-75
-71
-72
-71
-71
-74
-69
-60
-51
-49
-47
-44
-33
-17
-12
-19
-12
-7
-4
1
11
19
22
23
26
29
29
25
15
1
14
29
28
18
3
4
14
19
14
16
20
16
12
4
-4
-10
-9
-1
4
10
14
10
2
-7
-7
-10
-19
-25
-31
-32
-42
-56
-63
-67
-84
-104
-117
-108
-107
-113
-120
-116
-112
-116
-126
-126
-120
-120
-116
-104
-100
-102
-115
-129
-131
-123
-105
-89
-80
-82
-74
-69
-67
-65
-70
-57
-42
-35
-33
-29
-25
-22
-15
-13
-20
-29
-17
-6
-3
0
0
0
3
1
-6
-5
2
6
3
-1
3
10
12
6
7
21
24
17
19
34
39
48
71
62
52
33
37
45
33
22
31
53
64
61
46
46
51
64
73
75
90
103
106
100
88
90
93
89
96
107
114
104
97
93
87
80
79
88
95
96
66
57
75
59
38
7
-3
9
14
10
5
5
1
-17
-35
-38
-36
-33
-37
-37
-37
-35
-37
-50
-60
-63
-63
-83
-77
-49
-18
-35
-47
-38
-21
-17
-21
-16
-13
-28
-29
-8
14
13
-3
-7
-5
3
6
33
38
31
36
43
46
45
46
48
54
66
77
75
73
83
90
84
71
72
88
99
108
118
130
127
114
107
110
118
130
131
139
147
151
152
151
153
149
142
152
166
171
171
166
161
159
157
152
156
167
173
168
156
152
157
160
163
164
171
176
171
165
163
169
179
178
175
178
183
189
190
194
204
211
200
193
195
192
186
190
204
217
209
189
185
189
188
177
173
180
184
172
152
149
143
144
141
129
122
114
118
115
98
89
88
82
75
72
69
55
50
53
48
34
34
39
39
42
39
30
33
48
51
39
25
14
3
-3
-7
-48
-31
-6
-11
-20
-54
-70
-68
-64
-84
-122
-125
-96
-141
-173
-127
-117
-119
-116
-110
-116
-122
-118
-102
-92
-96
-97
-92
-101
-115
-118
-85
-66
-78
-93
-92
-72
-72
-92
-93
-77
-69
-79
-93
-95
-86
-82
-92
-117
-103
-109
-157
-146
-129
-104
-110
-146
-126
-96
-100
-118
-134
-117
-108
-121
-140
-151
-155
-165
-168
-159
-164
-170
-175
-212
-255
-286
-255
-203
-221
-229
-178
-113
-114
-152
-144
-119
-105
-109
-108
-86
-76
-90
-110
-120
-129
-150
-169
-172
-180
-175
-206
-244
-224
-199
-195
-211
-212
-196
-191
-223
-239
-178
-135
-166
-207
-218
-190
-165
-185
-203
-179
-157
-172
-197
-193
-185
-190
-197
-207
-215
-214
-197
-199
-207
-200
-184
-174
-180
-178
-173
-165
-156
-153
-141
-125
-126
-131
-119
-120
-123
-109
-89
-68
-81
-96
-99
-88
-74
-103
-126
-103
-61
-59
-79
-95
-94
-86
-84
-83
-77
-68
-66
-69
-66
-65
-66
-66
-67
-64
-68
-71
-73
-55
-72
-140
-153
-69
-4
-44
-93
-64
-13
-18
-52
-54
-27
6
11
4
11
19
19
19
20
19
15
19
10
2
-2
-7
-5
-3
-3
-5
-12
-15
-17
-16
-23
-34
-40
-32
-20
-18
-24
-35
-35
-38
-47
-61
-73
-76
-75
-81
-86
-94
-105
-106
-92
-81
-83
-87
-89
-93
-92
-93
-85
-72
-65
-61
-64
-69
-73
-70
-72
-86
-93
-88
-87
-92
-86
-78
-77
-85
-93
-97
-96
-81
-63
-54
-46
-36
-28
-18
-13
-6
11
34
50
49
45
45
53
61
67
76
82
89
89
76
64
65
69
61
56
61
65
57
52
48
50
45
33
23
16
16
13
9
1
-2
-5
-20
-28
-23
-23
-31
-42
-43
-29
-25
-26
-23
-22
-20
-11
-4
2
4
6
17
20
32
40
34
33
49
65
62
59
62
67
71
68
66
67
69
66
62
74
90
90
81
75
75
71
63
58
54
51
54
51
50
33
16
15
21
18
12
7
-4
-15
-13
-8
-13
-26
-24
-14
-6
-6
-16
-18
-26
-24
-12
-12
-19
-20
-12
-4
-2
-3
-5
-6
4
6
3
-2
-6
-10
-12
-15
-18
-18
-14
-17
-21
-18
-10
-7
-13
-8
4
5
-3
-6
-1
8
14
16
13
21
31
26
18
17
16
9
13
18
16
15
23
11
1
-10
-16
-18
-17
-8
-8
-10
-11
-11
-12
-12
-11
-10
-7
-3
-6
-10
-5
3
15
23
26
34
48
56
59
66
75
79
77
82
97
107
106
97
93
93
90
87
87
89
88
80
65
56
47
46
44
47
40
30
23
14
20
32
36
19
10
13
1
-39
-86
-50
5
23
23
22
34
47
55
58
64
66
64
66
67
73
60
71
68
53
54
54
47
34
30
31
20
10
-11
-24
-45
-51
-37
-28
-35
-55
-57
-55
-55
-61
-59
-37
-22
-10
3
20
2
-5
15
25
16
3
29
60
53
45
41
39
34
36
41
43
41
43
42
25
12
7
6
1
-13
-49
-10
28
11
-30
-66
-92
-25
40
35
7
2
37
50
32
24
57
104
97
78
81
110
134
130
118
122
129
115
97
110
125
97
100
99
84
77
86
7
-34
120
190
141
54
66
157
148
100
99
120
130
81
78
156
153
97
68
88
103
71
53
70
72
50
29
54
67
50
30
46
57
48
56
77
98
95
55
43
54
71
72
72
75
48
44
87
117
38
2
66
118
67
31
37
53
58
58
45
31
22
36
43
27
-29
-42
59
66
-8
-73
-47
17
-37
-89
-62
-1
-89
-153
-64
-26
-17
-59
-75
-64
-61
-69
-84
-50
-33
-66
-76
-55
-24
-85
-95
-25
-5
-16
-31
-21
-11
-12
5
-30
-60
8
74
37
-40
-31
36
64
18
-15
4
-1
-13
-17
-77
-93
-29
-16
-79
-131
-86
-37
-83
-213
-235
-132
-125
-161
-340
-279
-53
-39
-160
-214
-157
-123
-153
-173
-204
-123
-139
-163
-150
-159
-158
-169
-156
-165
-162
-147
-156
-174
-208
-203
-139
-145
-180
-191
-160
-141
-189
-184
-153
-143
-167
-198
-181
-155
-184
-251
-199
-144
-165
-181
-171
-147
-163
-198
-144
-110
-119
-128
-105
-69
-98
-141
-81
-46
-98
-114
-55
-28
-73
-88
-52
-84
-91
-17
-15
-74
-72
-38
-11
-28
-40
-46
-46
-45
-80
-46
-9
-35
-112
-83
38
-29
-95
-70
-6
-3
-100
-90
-9
-19
-76
-88
-25
-10
-17
-13
-15
13
-3
8
28
7
55
77
55
42
57
91
68
40
49
54
50
23
19
15
6
-8
-26
-26
-41
-78
-46
-43
-66
-46
-46
-47
-67
-71
-65
-76
-80
-94
-78
-63
-74
-73
-94
-116
-103
-131
-146
-128
-131
-177
-218
-167
-126
-111
-120
-121
-154
-167
-192
-220
-141
-38
-43
-101
-122
-109
-79
-51
-92
-125
-47
-14
-59
-115
-98
-40
-53
-95
-100
-82
-72
-97
-129
-139
-138
-147
-179
-179
-183
-181
-193
-224
-226
-202
-210
-227
-214
-204
-222
-219
-214
-252
-253
-206
-194
-207
-253
-234
-165
-187
-209
-212
-181
-169
-179
-135
-133
-156
-155
-142
-124
-130
-131
-128
-115
-110
-116
-114
-104
-92
-80
-66
-60
-72
-79
-73
-70
-67
-64
-57
-50
-39
-48
-58
-60
-38
-4
-9
-31
-3
24
34
26
33
51
53
54
59
85
112
112
106
117
128
130
136
151
172
199
199
170
187
212
189
163
169
199
196
168
162
164
150
128
116
120
123
113
102
96
106
124
114
113
132
138
149
168
172
186
199
196
183
189
204
203
186
171
170
162
142
119
112
105
97
94
94
100
100
101
108
111
120
113
97
79
88
106
106
111
123
144
165
161
152
188
188
167
170
202
257
258
272
298
327
355
353
365
389
397
405
394
391
389
356
319
299
281
259
245
260
252
230
182
121
122
123
79
50
47
42
18
-19
-49
-44
-62
-100
-83
-77
-50
-19
-40
-44
-51
-108
-98
-62
16
28
20
18
36
42
29
18
11
12
16
-2
-14
19
9
-37
-35
-30
-31
-88
-115
-35
-11
-85
-100
-57
-41
-70
-89
-91
-80
-73
-84
-101
-91
-80
-89
-104
-120
-120
-103
-115
-130
-137
-163
-152
-170
-159
-150
-154
-146
-142
-148
-160
-163
-164
-172
-175
-177
-181
-183
-183
-181
-180
-184
-193
-198
-202
-204
-197
-190
-186
-178
-173
-164
-166
-166
-154
-143
-124
-112
-102
-85
-71
-60
-42
-24
-14
-3
20
53
78
93
108
130
159
184
203
224
248
265
280
293
306
318
329
342
352
358
358
362
370
373
367
357
358
361
351
338
329
319
304
290
285
275
267
259
250
243
225
209
212
203
184
175
159
139
115
80
53
32
11
-19
-37
-49
-74
-91
-112
-124
-141
-149
-150
-154
-147
-152
-151
-135
-114
-72
-18
49
117
176
242
294
349
416
469
524
575
621
658
686
690
685
677
671
663
654
634
623
643
636
604
585
570
553
506
474
466
434
386
320
247
194
146
64
-48
-122
-176
-265
-352
-425
-507
-577
-636
-692
-731
-750
-758
-784
-801
-804
-787
-757
-737
-721
-672
-614
-576
-539
-471
-441
-405
-322
-287
-304
-244
-203
-212
-189
-140
-148
-184
-207
-244
-295
-345
-387
-482
-593
-562
-561
-578
-606
-635
-604
-571
-531
-477
-385
-255
-161
-74
15
111
210
287
372
457
537
625
703
776
845
932
1022
1094
1175
1236
1266
1311
1346
1351
1355
1342
1344
1283
1181
1195
1174
1083
971
883
797
694
702
738
670
554
469
380
308
175
34
-64
-188
-316
-453
-611
-751
-898
-1083
-1116
-1200
-1407
-1524
-1648
-1742
-1808
-1870
-1970
-1996
-1942
-1904
-1907
-1885
-1927
-2009
-1698
-1391
-1266
-1206
-1117
-912
-776
-711
-639
-553
-461
-430
-406
-369
-349
-355
-381
-399
-407
-422
-441
-460
-464
-468
-478
-473
-436
-408
-390
-341
-286
-240
-193
-156
-101
-19
24
40
110
186
237
278
310
361
402
423
438
451
469
475
475
484
480
464
443
400
376
368
358
341
315
316
308
273
267
277
276
277
273
281
294
305
317
342
342
359
390
393
411
440
437
457
504
532
520
552
554
533
532
529
537
523
527
532
502
478
480
417
378
399
340
287
263
220
190
193
159
96
65
40
13
-28
-38
2
-14
-16
-32
-40
-25
-16
-11
-1
5
11
17
-7
2
30
-5
-41
-56
-23
10
-32
-63
-62
-43
-57
-88
-76
-65
-54
-40
-60
-72
-53
-64
-97
-67
-4
-7
-38
-24
3
11
-2
3
18
7
-1
8
33
38
33
37
30
28
18
14
28
29
35
33
28
36
13
36
40
32
46
54
48
45
69
89
102
86
83
113
-29
-2
41
96
153
86
99
147
178
183
154
162
182
196
171
135
135
140
141
145
163
192
198
195
138
138
157
88
139
153
158
171
153
178
195
191
178
171
168
149
125
131
151
142
43
51
78
66
77
60
69
84
52
57
90
99
69
48
77
81
71
65
52
64
58
33
32
55
59
22
-50
-21
-3
28
10
-36
-12
15
10
2
-23
-24
-39
-45
-73
-103
-102
-90
-113
-149
-173
-142
-201
-192
-104
-115
-154
-192
-207
-180
-161
-131
-136
-150
-150
-222
-228
-179
-176
-224
-237
-227
-206
-217
-239
-335
-381
-308
-280
-278
-317
-303
-228
-212
-243
-255
-254
-257
-267
-244
-230
-235
-272
-287
-287
-301
-276
-283
-287
-274
-285
-282
-293
-279
-274
-283
-351
-363
-306
-291
-283
-280
-281
-266
-259
-289
-279
-257
-341
-318
-267
-275
-263
-254
-225
-208
-217
-199
-219
-229
-206
-199
-203
-203
-197
-192
-191
-240
-251
-206
-199
-195
-200
-211
-196
-212
-219
-233
-228
-193
-200
-199
-198
-189
-184
-185
-180
-196
-201
-198
-186
-172
-174
-170
-153
-139
-139
-150
-150
-151
-143
-133
-147
-121
-96
-91
-100
-120
-115
-102
-108
-115
-111
-107
-104
-111
-119
-90
-88
-78
-93
-96
-56
-49
-55
-64
-62
-49
-49
-52
-66
-64
-52
-50
-51
-46
-38
-42
-74
-120
-93
-71
-56
-68
-95
-81
-87
-96
-102
-123
-125
-103
-73
-64
-61
-52
-33
-32
-43
-67
-79
-52
-29
2
1
-5
-2
9
-2
-16
-5
7
11
9
7
12
5
-9
-24
-27
-18
-7
-9
-8
3
3
2
-2
-2
-2
8
23
30
33
45
49
53
57
67
78
77
68
70
82
86
75
72
90
104
96
77
75
85
106
108
101
108
115
114
118
107
130
149
153
135
117
121
110
97
100
102
98
89
101
130
125
93
84
75
83
82
85
104
104
101
108
116
113
104
108
98
103
113
114
115
105
90
91
106
106
92
90
98
102
108
98
74
63
75
83
70
59
65
59
39
19
5
3
-1
9
35
39
30
26
18
8
-4
-8
-1
11
11
0
8
9
-4
-25
-36
-20
-16
-26
-28
-21
-24
-23
-38
-39
-29
-41
-57
-70
-73
-65
-49
-57
-64
-66
-69
-59
-89
-122
-74
-31
-26
-58
-69
-46
-57
-69
-59
-39
-21
-26
-38
-28
-16
-36
-60
-62
-65
-65
-48
-21
8
26
32
29
6
-44
-111
-205
-309
-432
-583
-702
-776
-802
-780
-709
-586
-438
-287
-125
23
138
226
303
375
436
470
492
511
527
538
529
514
490
456
424
376
326
281
232
186
139
83
36
5
-9
-8
-8
-30
-38
-20
-15
-18
-17
1
19
25
21
26
39
53
63
54
49
72
79
81
79
69
63
60
51
46
25
9
-10
-58
-75
-89
-108
-134
-157
-139
-162
-200
-201
-203
-182
-154
-152
-125
-111
-98
-87
-79
-70
-66
-82
-104
-128
-135
-130
-166
-204
-216
-194
-193
-216
-213
-194
-194
-206
-192
-171
-170
-138
-93
-48
-33
-38
-21
4
34
34
27
37
49
63
67
58
55
65
52
17
0
-4
-15
-19
-36
-63
-78
-82
-90
-106
-124
-133
-128
-120
-125
-128
-128
-117
-106
-93
-76
-75
-58
-40
-29
-11
-4
8
16
21
26
35
49
43
49
53
47
50
46
37
37
32
24
20
27
35
34
27
31
34
31
30
35
34
44
53
71
86
92
98
98
91
98
111
120
109
113
127
123
109
94
104
111
108
108
107
106
100
96
93
94
94
96
101
114
125
120
113
110
105
96
102
124
136
138
146
150
137
129
129
130
135
135
139
134
116
115
115
111
104
100
105
102
95
90
90
96
99
96
93
95
101
100
95
102
107
111
113
119
124
120
125
127
127
133
139
144
137
137
136
130
122
113
113
116
119
116
115
108
95
82
67
70
75
67
67
63
53
37
19
8
-2
6
17
14
5
-2
3
-4
-27
-44
-52
-55
-50
-45
-45
-58
-70
-72
-82
-88
-89
-86
-86
-90
-97
-93
-93
-104
-109
-111
-112
-109
-107
-109
-116
-116
-118
-120
-123
-129
-126
-124
-126
-120
-121
-122
-126
-122
-124
-133
-132
-122
-121
-115
-110
-117
-120
-110
-102
-108
-116
-113
-118
-126
-123
-108
-99
-103
-117
-130
-131
-131
-133
-133
-127
-123
-121
-128
-139
-149
-149
-140
-143
-155
-155
-153
-168
-196
-212
-221
-226
-228
-237
-241
-241
-244
-256
-273
-276
-271
-264
-256
-257
-255
-248
-244
-244
-261
-272
-267
-253
-236
-229
-223
-225
-212
-193
-188
-176
-160
-136
-118
-102
-64
-32
-3
26
55
70
71
88
100
123
167
218
297
361
432
492
509
496
469
453
436
378
293
225
169
80
-20
-92
-135
-190
-258
-313
-363
-411
-459
-512
-577
-623
-648
-677
-718
-752
-775
-805
-840
-852
-864
-872
-876
-874
-853
-847
-848
-857
-853
-838
-829
-801
-760
-726
-702
-662
-625
-586
-529
-480
-422
-360
-285
-203
-131
-50
23
100
186
273
350
418
498
594
670
729
769
800
841
889
931
1031
1019
991
990
965
942
885
846
813
774
734
677
633
587
539
496
447
404
372
345
295
245
207
173
142
96
49
0
-67
-137
-184
-225
-264
-292
-301
-307
-313
-316
-322
-314
-302
-286
-268
-227
-186
-148
-124
-98
-47
-2
34
78
132
186
225
268
325
362
377
418
477
519
546
576
618
656
676
701
741
771
782
795
830
878
888
867
844
811
801
784
757
719
694
656
601
548
499
441
371
309
266
227
174
117
62
13
-28
-63
-93
-124
-149
-172
-199
-226
-234
-233
-234
-255
-259
-248
-248
-252
-250
-234
-223
-225
-231
-230
-217
-188
-184
-192
-202
-214
-224
-239
-242
-253
-250
-247
-257
-268
-278
-290
-296
-289
-296
-322
-337
-331
-324
-315
-317
-301
-266
-245
-224
-229
-218
-208
-202
-180
-148
-121
-99
-76
-47
-23
-7
17
55
91
133
149
162
165
145
144
157
170
172
185
216
238
237
219
222
238
240
241
263
286
301
320
324
325
329
331
341
350
360
362
363
365
375
387
377
386
392
392
398
405
445
443
418
415
410
420
416
415
420
412
402
387
382
388
379
359
341
329
318
306
301
285
267
257
265
258
228
203
190
187
172
153
153
152
142
134
129
86
68
54
58
37
-5
-32
-23
-4
-16
-43
-60
-60
-43
-69
-125
-159
-163
-141
-158
-144
-91
-26
18
27
12
22
45
28
-25
-92
-123
-97
-97
-169
-247
-279
-321
-359
-376
-390
-403
-428
-453
-448
-433
-429
-429
-416
-397
-360
-318
-349
-359
-326
-324
-303
-280
-229
-197
-205
-212
-188
-174
-195
-200
-193
-209
-239
-273
-292
-304
-330
-370
-389
-398
-418
-443
-473
-500
-503
-502
-498
-460
-423
-439
-457
-455
-430
-414
-422
-418
-402
-380
-382
-382
-379
-368
-365
-375
-371
-348
-335
-333
-326
-300
-290
-294
-285
-265
-250
-250
-232
-205
-204
-202
-193
-166
-156
-145
-112
-117
-112
-98
-88
-91
-101
-114
-112
-105
-94
-83
-88
-74
-62
-80
-73
-53
-43
-36
-27
-21
-12
-4
-3
-21
-37
-34
-15
-1
34
83
35
36
53
71
93
92
108
137
147
125
127
174
190
207
221
229
242
256
267
276
295
297
294
309
330
319
304
286
283
296
294
285
282
292
300
292
284
291
290
290
296
307
326
329
321
312
310
305
300
300
315
329
338
337
328
305
297
306
308
297
288
296
295
280
271
273
272
265
254
245
257
267
281
283
286
262
246
250
255
265
257
260
262
263
257
248
250
252
259
260
260
269
266
249
244
250
254
242
235
236
236
228
223
214
202
190
183
172
163
162
151
145
151
145
142
145
142
128
121
119
122
120
120
129
133
132
114
103
113
121
120
112
114
119
117
102
83
83
86
75
70
75
82
72
55
56
62
63
57
61
73
68
56
42
33
29
21
22
24
19
14
4
4
6
-3
-12
-19
-17
-21
-29
-23
-23
-30
-38
-35
-39
-42
-42
-41
-48
-66
-76
-77
-73
-75
-80
-81
-80
-85
-93
-101
-101
-94
-109
-122
-121
-121
-126
-138
-142
-132
-128
-133
-142
-134
-132
-135
-130
-128
-121
-118
-111
-98
-92
-92
-94
-97
-99
-102
-95
-88
-83
-70
-65
-66
-63
-52
-45
-43
-41
-28
-20
-19
-23
-34
-34
-34
-38
-41
-36
-27
-19
-18
-27
-33
-24
-13
-12
-20
-10
3
12
10
16
17
6
-5
1
8
19
33
34
26
20
23
22
25
34
54
58
49
53
52
43
38
43
44
34
35
39
37
39
40
39
38
40
39
38
44
40
35
22
15
17
9
1
-4
-2
8
1
-9
-17
-20
-24
-32
-36
-46
-50
-39
-37
-45
-51
-54
-59
-67
-67
-63
-70
-80
-79
-84
-100
-100
-95
-102
-114
-122
-119
-117
-113
-103
-93
-90
-109
-119
-114
-111
-120
-125
-117
-102
-102
-113
-117
-115
-116
-123
-129
-130
-124
-116
-114
-110
-99
-89
-96
-103
-97
-77
-55
-44
-44
-38
-36
-36
-38
-28
-14
-17
-22
-18
-7
-7
-15
-8
3
4
-3
0
13
21
22
15
13
17
16
7
5
13
18
14
22
26
23
23
17
9
8
15
12
7
10
21
29
32
30
13
0
-4
-10
-13
-17
-12
-13
-25
-29
-25
-28
-37
-51
-65
-69
-70
-74
-89
-110
-118
-122
-130
-139
-148
-161
-184
-201
-211
-213
-216
-222
-213
-192
-178
-172
-166
-156
-144
-136
-124
-109
-104
-85
-60
-48
-47
-42
-40
-41
-47
-56
-67
-74
-79
-91
-121
-131
-134
-147
-160
-159
-156
-162
-161
-159
-155
-145
-125
-108
-97
-75
-57
-50
-52
-44
-20
2
9
16
22
17
16
27
44
55
57
64
64
52
44
40
31
26
26
34
35
35
39
40
28
27
45
64
71
75
86
96
91
87
87
97
110
115
124
137
146
137
127
128
133
135
139
140
138
141
136
130
124
123
127
131
126
121
124
120
122
109
91
95
110
117
110
106
109
100
88
78
67
61
56
54
49
44
33
28
25
27
19
4
8
13
10
0
-3
1
-6
-18
-25
-23
-12
-9
-11
-12
-15
-21
-25
-11
-5
-9
-9
-1
1
-1
-2
-6
-6
-2
3
2
0
4
5
4
10
23
29
31
35
42
56
57
59
66
71
77
81
81
78
69
55
47
45
50
50
44
34
19
6
-2
-10
-11
-13
-11
-3
-8
-19
-31
-33
-35
-46
-58
-52
-40
-36
-40
-45
-54
-60
-57
-52
-50
-48
-41
-33
-26
-23
-19
-20
-28
-25
-17
-11
1
7
1
-12
-14
-5
-7
-13
-14
-13
-13
-19
-26
-30
-36
-40
-48
-49
-46
-53
-65
-69
-61
-71
-73
-59
-51
-59
-66
-57
-52
-63
-67
-67
-62
-59
-63
-70
-76
-79
-79
-74
-65
-55
-54
-59
-63
-61
-55
-55
-49
-42
-35
-32
-38
-53
-61
-48
-30
-22
-23
-11
1
-9
-32
-45
-51
-55
-49
-43
-33
-28
-39
-52
-61
-56
-48
-51
-53
-39
-33
-34
-31
-18
-9
-9
-6
7
27
37
37
34
35
42
49
49
45
51
56
51
46
46
46
37
29
37
46
35
24
22
25
22
13
16
19
17
19
27
30
29
33
39
37
41
45
51
62
67
72
71
79
100
112
110
119
129
128
124
130
145
153
161
163
164
154
138
125
123
129
121
104
93
98
92
63
37
32
33
22
11
12
8
5
8
3
-1
-18
-26
-18
-10
-13
-18
-13
-9
-12
-17
-18
-17
-11
-7
-7
-14
-26
-35
-48
-62
-62
-57
-51
-55
-63
-68
-72
-78
-82
-87
-91
-85
-81
-81
-82
-90
-93
-87
-78
-74
-67
-56
-51
-44
-39
-35
-23
-18
-13
-12
-14
-13
-10
-9
-3
-1
-1
-5
-6
-4
0
-2
0
5
9
9
14
13
12
14
15
16
17
34
61
64
62
74
81
75
68
71
74
67
67
70
72
61
49
37
26
19
12
7
3
3
-2
-8
-7
-9
-19
-30
-28
-19
-5
1
5
13
11
3
6
2
-6
-13
-15
-18
-33
-54
-73
-87
-99
-112
-116
-127
-149
-173
-191
-207
-233
-245
-253
-268
-279
-293
-300
-312
-336
-355
-369
-377
-380
-386
-398
-407
-418
-423
-425
-429
-435
-433
-426
-425
-428
-431
-427
-413
-394
-379
-359
-326
-304
-291
-280
-260
-235
-217
-196
-164
-136
-115
-88
-61
-27
12
58
106
149
193
219
235
251
286
320
347
373
402
420
437
451
460
472
487
497
506
518
528
522
520
527
533
529
516
506
491
480
468
461
463
460
445
432
422
422
416
409
397
378
360
348
343
330
311
293
276
259
236
207
184
151
112
83
60
30
-12
-59
-103
-144
-174
-207
-241
-270
-288
-301
-317
-339
-356
-372
-378
-368
-348
-326
-291
-245
-203
-157
-99
-24
46
120
193
260
328
393
459
521
582
640
690
721
753
783
805
813
825
835
829
810
791
761
722
683
649
618
586
561
528
482
435
392
343
280
214
156
98
33
-41
-119
-200
-273
-346
-416
-474
-513
-541
-566
-605
-642
-670
-684
-682
-661
-637
-612
-591
-563
-523
-482
-453
-424
-386
-350
-308
-263
-223
-199
-185
-166
-149
-152
-168
-181
-189
-210
-241
-279
-315
-341
-376
-418
-448
-475
-501
-528
-543
-548
-555
-558
-555
-542
-520
-488
-440
-380
-310
-241
-170
-87
10
103
193
294
402
510
625
751
892
1031
1147
1238
1324
1412
1488
1545
1589
1612
1616
1592
1535
1470
1401
1319
1239
1171
1111
1061
1006
933
839
722
631
555
439
299
186
84
-45
-186
-313
-441
-583
-725
-873
-1003
-1102
-1239
-1370
-1441
-1514
-1588
-1673
-1723
-1724
-1730
-1752
-1750
-1717
-1681
-1646
-1603
-1531
-1437
-1343
-1255
-1152
-1044
-946
-870
-796
-733
-685
-599
-535
-529
-523
-497
-475
-483
-499
-510
-523
-529
-531
-528
-516
-501
-479
-440
-390
-334
-279
-234
-181
-108
-36
30
86
140
197
