11111,11111
0,0
82138,80536
107786,99938
107760,99928
107779,99930
107754,99896
107762,99907
107783,99913
107796,99921
107748,99920
107795,99926
107777,99916
107762,99929
107754,99916
107806,99944
107791,99924
107797,99935
107789,99919
107756,99929
107816,99947
107788,99933
107814,99938
107760,99951
107802,99921
107791,99963
107821,99925
107803,99947
107855,99951
107803,99958
107823,99961
107857,99950
107867,99976
107893,99980
107820,99976
107888,99986
107932,99989
107864,99995
107936,99982
107897,99994
107957,100001
107923,100030
107927,100018
107962,100029
107963,100039
108005,100037
107994,100047
107988,100041
107998,100027
108032,100053
108010,100040
108007,100058
108016,100037
107995,100056
107972,100018
107939,100012
107908,100010
107900,100004
107835,99982
107859,99968
107849,99951
107785,99957
107806,99950
107769,99952
107776,99914
107780,99929
107765,99953
107787,99926
107773,99943
107774,99950
107769,99937
107812,99964
107786,99930
107796,99962
107809,99973
107821,99958
107789,99954
107835,99973
107820,99979
107843,99984
107839,99987
107862,99983
107811,100001
107866,99985
107876,100002
107884,100005
107853,100012
107853,99989
107902,100029
107878,100026
107870,100004
107893,100009
107916,100015
107905,100026
107876,100016
107918,100027
107910,100034
107900,100038
107879,100024
107925,100026
107887,100009
107932,100022
107894,100037
107921,100036
107902,100056
107928,100030
107901,100032
107930,100032
107911,100048
107911,100059
107943,100053
107934,100056
107960,100036
107964,100053
107948,100061
107935,100057
107911,100050
107942,100032
107912,100055
107959,100071
107880,100050
107939,100080
107938,100059
107926,100041
107926,100068
107892,100046
107959,100071
107964,100091
107943,100080
107999,100117
108028,100138
108009,100135
108018,100138
108192,100220
108227,100219
108236,100243
108260,100253
108277,100257
108819,100554
108849,100544
108841,100547
108859,100564
108908,100584
108922,100584
109108,100749
109090,100740
109095,100737
109096,100734
109062,100731
109058,100706
109010,100745
109019,100725
108965,100745
108929,100690
108873,100714
108863,100700
108838,100683
108837,100683
108776,100668
108758,100673
108694,100655
108679,100632
108636,100613
108633,100594
108622,100611
108550,100584
108545,100568
108482,100542
108503,100538
108483,100519
108460,100528
108441,100488
108411,100499
108395,100496
108428,100489
108379,100511
108390,100495
108382,100497
108348,100465
108329,100466
108321,100454
108320,100434
108283,100443
108237,100414
108253,100430
108257,100393
108212,100375
108207,100384
108158,100361
108130,100355
108145,100333
108126,100344
108118,100372
108127,100345
108113,100347
108121,100352
108131,100354
108151,100375
108130,100378
108141,100372
108151,100380
108131,100387
108164,100415
108189,100423
108224,100422
108176,100437
108206,100495
108184,100459
108227,100478
108206,100458
108231,100478
108220,100468
108247,100477
108229,100487
108251,100492
108235,100480
108235,100484
108243,100499
108268,100498
108218,100487
108279,100487
108258,100490
108278,100486
108209,100474
108220,100474
108206,100458
108176,100473
108183,100424
108193,100447
108153,100444
108150,100420
108154,100433
108151,100433
108175,100458
108164,100463
108184,100459
108212,100476
108184,100486
108210,100481
108191,100499
108223,100494
108247,100493
108249,100535
108261,100503
108240,100515
108242,100543
108218,100513
108234,100491
108264,100531
108253,100518
108236,100522
108260,100507
108257,100549
108264,100542
108217,100521
108241,100513
108234,100545
108227,100493
108193,100502
108231,100498
108191,100489
108192,100491
108185,100455
108166,100479
108153,100423
108144,100425
108105,100402
108133,100403
108066,100376
108044,100344
108021,100324
108014,100312
107971,100300
107962,100245
107926,100213
107892,100218
107872,100143
107813,100131
107792,100101
107752,100056
107787,100070
107736,100037
107708,100037
107658,100006
107626,99971
107623,99930
107568,99908
107596,99905
107555,99865
107519,99828
107508,99860
107489,99827
107533,99826
107493,99857
107522,99824
107503,99826
107493,99840
107468,99804
107470,99811
107450,99751
107381,99798
107423,99770
107414,99748
107397,99702
107351,99708
107366,99686
107295,99649
107319,99659
107289,99640
107331,99656
107307,99634
107241,99618
107261,99599
107244,99595
107208,99569
107215,99577
107219,99603
107239,99600
107202,99605
107174,99590
107189,99560
107154,99567
107145,99505
107128,99527
107122,99512
107036,99478
107048,99451
107029,99437
107044,99452
107018,99400
107036,99438
106987,99434
107062,99449
107061,99499
107042,99473
107079,99465
107043,99523
107055,99455
107038,99481
107056,99512
107079,99509
107064,99508
107094,99497
107104,99506
107098,99559
107088,99563
107104,99577
107111,99562
107089,99568
107065,99531
107048,99508
107018,99507
107029,99454
106966,99461
106984,99449
106955,99408
106934,99391
106919,99381
106862,99349
106874,99367
106861,99329
106816,99293
106858,99324
106818,99299
106826,99253
106782,99282
106819,99255
106812,99262
106801,99241
106791,99230
106763,99216
106769,99193
106728,99205
106747,99169
106751,99191
106711,99196
106766,99175
106756,99171
106759,99176
106794,99203
106802,99225
106823,99218
106846,99241
106808,99238
106848,99228
106861,99255
106861,99274
106847,99268
106871,99261
106856,99257
106888,99249
106913,99293
106852,99277
106874,99247
106870,99244
106868,99245
106811,99170
106811,99169
106777,99131
106784,99114
106703,99080
106732,99108
106708,99066
106737,99101
106726,99091
106756,99093
106695,99080
106708,99096
106711,99067
106683,99078
106666,99066
106696,99064
106651,99063
106671,99039
106624,99027
106665,99052
106607,99040
106627,99040
106557,99021
106604,98982
106537,99024
106564,98995
106574,98985
106560,98989
106546,98982
106556,99014
106544,99002
106541,99001
106535,99020
106534,98993
106525,99003
106525,98967
106542,98987
106522,98962
106501,98953
106456,98932
106428,98930
106481,98969
106464,98990
106456,98982
106481,98962
106474,98985
106485,99003
106460,98985
106469,98999
106480,98985
106452,99010
106461,99003
106452,99001
106459,99007
106435,99012
106451,98991
106434,99012
106458,98998
106395,98975
106442,98995
106417,98999
106402,98993
106413,98982
106419,98996
106432,99000
106416,98992
106405,99006
106399,98978
106423,98973
106388,98964
106402,98965
106366,98958
106361,98904
106379,98923
106341,98917
106325,98916
106319,98888
106323,98881
106293,98866
106313,98861
106287,98875
106266,98815
106231,98814
106245,98787
106213,98783
106175,98722
106178,98699
106134,98660
106107,98654
106083,98623
106067,98604
106045,98571
105986,98502
105957,98497
105955,98454
105888,98415
105885,98389
105824,98333
105802,98285
105746,98256
105704,98184
105602,98115
105595,98066
105515,98010
105469,97926
105422,97894
105375,97840
105348,97807
105343,97799
105277,97774
105265,97771
105267,97721
105235,97721
105209,97714
105202,97658
105157,97610
105116,97574
105081,97547
105041,97493
105011,97459
104944,97419
104886,97357
104817,97281
104743,97227
104676,97180
104602,97119
104509,97035
104434,96953
104336,96891
104266,96830
104168,96771
104174,96737
104082,96659
104048,96624
103988,96612
103948,96596
103912,96554
103877,96563
103895,96558
103841,96568
103863,96585
103854,96588
103854,96600
103861,96583
103856,96592
103851,96622
103847,96584
103822,96576
103789,96551
103776,96525
103782,96546
103747,96521
103726,96548
103737,96562
103713,96556
103741,96559
103741,96577
103705,96580
103719,96586
103739,96610
103770,96630
103745,96627
103787,96684
103793,96725
103829,96739
103809,96755
103828,96754
103878,96778
103865,96817
103864,96810
103837,96803
103899,96834
103884,96805
103863,96820
103849,96808
103894,96820
103834,96795
103885,96859
103912,96870
103948,96910
103963,96960
103978,96971
104038,97043
104066,97055
104066,97068
104091,97102
104075,97073
104115,97092
104087,97074
104037,97026
104065,97063
104043,97034
104027,97020
104031,97037
104008,97005
104055,97010
104038,97039
104118,97073
104118,97089
104134,97113
104157,97165
104196,97182
104179,97223
104220,97256
104203,97254
104190,97268
104182,97248
104182,97243
104174,97246
104170,97224
104171,97244
104136,97250
104162,97236
104153,97249
104139,97228
104166,97244
104164,97243
104145,97262
104196,97303
104182,97296
104186,97300
104175,97278
104193,97292
104154,97283
104136,97252
104192,97280
104147,97283
104149,97285
104135,97284
104129,97231
104098,97242
104119,97220
104061,97205
104098,97224
104071,97191
104019,97194
104045,97160
104032,97143
104007,97120
104004,97127
103985,97078
103981,97085
103965,97076
103966,97073
103995,97086
103941,97079
103992,97094
103970,97113
103948,97122
103987,97112
103941,97098
103971,97089
103944,97052
103906,97069
103925,97049
103953,97086
103947,97045
103901,97052
103908,97071
103914,97052
103885,97052
103936,97061
103904,97029
103925,97064
103925,97048
103941,97054
103930,97062
103895,97072
103950,97062
103928,97071
103938,97086
103948,97069
103923,97099
103965,97091
103956,97084
103988,97106
103954,97086
103964,97090
103954,97087
103925,97061
103922,97041
103896,97050
103904,97027
103859,97014
103885,97025
103876,97033
103892,97006
103863,97015
103898,97056
103870,97051
103919,97056
103891,97081
103908,97088
103894,97091
103904,97076
103907,97064
103896,97076
103923,97087
103883,97075
103859,97086
103871,97065
103861,97031
103829,97004
103796,97028
103811,97007
103761,96971
103755,96990
103760,96961
103686,96933
103714,96941
103692,96924
103673,96918
103668,96909
103670,96910
103675,96907
103672,96909
103682,96948
103656,96930
103696,96954
103676,96977
103702,96955
103726,96987
103698,97013
103737,96988
103733,97003
103761,97047
103750,97057
103763,97082
103763,97073
103784,97102
103785,97104
103779,97103
103775,97097
103791,97120
103790,97133
103775,97134
103792,97163
103796,97163
103793,97164
103826,97178
103836,97205
103816,97243
103872,97242
103877,97234
103857,97233
103836,97268
103861,97277
103865,97273
103859,97240
103830,97263
103862,97244
103796,97240
103825,97252
103824,97224
103830,97256
103819,97236
103843,97250
103831,97239
103810,97215
103821,97256
103793,97202
103812,97247
103802,97218
103791,97238
103809,97211
103785,97222
103811,97233
103807,97251
103794,97221
103821,97234
103777,97234
103828,97231
103780,97229
103784,97201
103799,97177
103778,97183
103780,97164
103782,97192
103766,97191
103792,97196
103778,97187
103792,97192
103794,97193
103792,97198
103762,97180
103763,97180
103749,97195
103762,97200
103752,97203
103769,97209
103784,97205
103810,97223
103807,97225
103806,97241
103843,97270
103836,97260
103849,97279
103829,97258
103834,97264
103840,97270
103876,97281
103860,97284
103867,97278
103862,97287
103872,97274
103831,97286
103885,97288
103870,97289
103880,97277
103911,97315
103909,97304
103891,97315
103930,97338
103917,97321
103926,97353
103944,97348
103941,97388
103963,97372
103971,97390
103953,97399
103988,97408
103958,97378
103977,97393
103967,97371
103958,97415
103974,97376
103972,97383
103946,97392
103968,97383
103953,97388
103968,97411
103937,97431
103968,97424
103997,97423
103990,97424
104008,97461
104059,97466
104011,97490
104049,97504
104056,97517
104081,97543
104067,97559
104074,97562
104099,97564
104101,97589
104113,97563
104066,97565
104101,97567
104056,97555
104048,97540
104045,97533
104030,97512
103993,97506
103973,97488
103971,97472
103975,97461
103944,97433
103964,97449
103917,97455
103915,97450
103937,97434
103898,97423
103930,97442
103930,97438
103915,97453
103904,97437
103953,97453
103922,97439
103908,97426
103933,97437
103911,97427
103959,97423
103929,97441
103933,97459
103955,97465
103927,97475
103958,97452
103924,97469
103951,97446
103942,97451
103974,97445
103902,97469
103929,97483
103932,97502
103929,97479
103959,97504
103979,97508
103964,97532
103984,97511
103979,97537
103969,97526
103935,97518
103967,97491
103938,97496
103966,97522
103930,97496
103954,97506
103914,97512
103918,97477
103924,97498
103941,97528
103963,97513
103936,97529
103964,97543
103931,97545
103954,97558
103988,97579
103969,97534
103961,97569
103983,97577
103968,97559
103972,97555
104014,97578
103976,97581
103987,97590
103999,97592
103974,97566
103961,97574
103993,97599
103973,97571
103984,97576
103944,97598
103965,97574
103976,97554
103969,97576
103952,97562
103969,97565
103971,97555
103969,97551
103979,97538
103954,97548
103953,97524
103959,97535
103943,97539
103962,97550
103960,97535
103975,97551
103974,97553
103974,97551
103985,97562
103991,97561
103991,97559
104007,97578
104014,97595
103996,97608
104035,97594
104014,97629
104032,97628
104041,97642
104062,97664
104057,97653
104063,97662
104081,97693
104079,97692
104134,97715
104089,97733
104158,97779
104159,97787
104155,97776
104178,97794
104162,97797
104180,97819
104189,97820
104192,97833
104191,97833
104218,97848
104200,97856
104206,97846
104225,97872
104201,97876
104211,97845
104204,97843
104169,97840
104194,97857
104194,97840
104163,97859
104152,97839
104190,97850
104159,97831
104189,97849
104192,97854
104198,97853
104218,97835
104196,97867
104240,97871
104260,97863
104249,97874
104267,97889
104272,97886
104298,97910
104282,97886
104268,97870
104279,97887
104229,97859
104257,97832
104220,97828
104208,97808
104226,97811
104195,97771
104186,97791
104201,97774
104181,97773
104143,97798
104175,97782
104143,97764
104166,97765
104174,97740
104123,97773
104159,97769
104138,97771
104133,97755
104134,97772
104115,97750
104112,97759
104146,97737
104166,97754
104097,97724
104122,97717
104103,97759
104108,97745
104154,97764
104130,97744
104172,97761
104176,97740
104171,97772
104179,97768
104187,97785
104210,97777
104181,97794
104214,97784
104208,97781
104258,97792
104203,97805
104264,97817
104265,97797
104272,97823
104246,97831
104309,97830
104294,97812
104294,97834
104248,97804
104268,97815
104273,97800
104275,97790
104292,97794
104224,97762
104254,97799
104261,97763
104231,97753
104202,97753
104251,97750
104240,97751
104230,97742
104229,97734
104238,97717
104229,97740
104254,97735
104237,97733
104256,97726
104227,97714
104247,97731
104215,97711
104260,97713
104209,97685
104260,97688
104235,97679
104207,97656
104207,97633
104177,97591
104145,97552
104157,97500
104094,97439
104114,97456
104113,97411
104127,97393
104104,97409
104147,97363
104151,97382
104119,97383
104172,97386
104126,97384
104156,97422
104163,97391
104112,97391
104143,97391
104091,97385
104113,97381
104076,97404
104138,97425
104138,97444
104158,97439
104187,97506
104181,97530
104210,97546
104185,97584
104252,97599
104248,97620
104236,97636
104281,97632
104255,97638
104287,97646
104270,97677
104295,97654
104300,97677
104312,97677
104295,97677
104315,97720
104335,97715
104297,97709
104307,97731
104332,97727
104353,97754
104368,97768
104370,97787
104377,97794
104397,97808
104411,97826
104439,97869
104444,97856
104427,97853
104449,97861
104484,97855
104435,97890
104504,97891
104472,97884
104486,97913
104484,97909
104524,97916
104501,97930
104524,97967
104573,97954
104568,97999
104576,98011
104603,98041
104661,98096
104670,98103
104718,98151
104748,98186
104774,98214
104812,98251
104825,98273
104899,98281
104851,98305
104906,98312
104945,98368
104960,98363
105002,98401
104979,98384
104991,98414
105007,98432
105026,98430
105004,98461
105030,98455
105058,98462
105057,98470
105027,98447
105070,98478
105031,98475
105084,98471
105092,98486
105050,98495
105075,98489
105089,98517
105091,98521
105143,98544
105136,98547
105178,98553
105210,98602
105195,98586
105206,98598
105230,98609
105269,98641
105258,98654
105259,98629
105284,98655
105332,98648
105325,98660
105348,98653
105315,98681
105361,98686
105386,98719
105367,98690
105393,98732
105426,98720
105405,98733
105418,98732
105416,98753
105439,98734
105436,98744
105490,98766
105481,98794
105483,98777
105522,98797
105549,98828
105602,98832
105600,98874
105678,98911
105741,98925
105747,98998
105849,99034
105906,99077
106004,99151
106061,99215
106159,99267
106246,99313
106308,99379
106388,99442
106464,99480
106541,99519
106607,99570
106663,99611
106675,99635
106783,99689
106834,99725
106883,99775
106952,99806
106999,99828
107029,99859
107120,99917
107153,99919
107176,99970
107216,99960
107215,99995
107226,99988
107224,99997
107262,100016
107257,100001
107280,100020
107275,100026
107272,100018
107279,100031
107272,100006
107312,100042
107308,100025
107285,100023
107316,100032
107299,100018
107325,100040
107349,100024
107332,100010
107364,100018
107326,100038
107324,100020
107326,100032
107305,99971
107313,99994
107320,99994
107284,99967
107252,99970
107271,99965
107258,99970
107226,99960
107250,99944
107248,99964
107238,99923
107234,99946
107241,99917
107245,99958
107212,99942
107203,99908
107177,99928
107217,99922
107157,99912
107183,99896
107159,99858
107158,99871
107127,99864
107127,99867
107064,99845
107094,99833
107100,99850
107070,99817
107075,99810
107066,99817
107070,99787
107043,99785
107029,99768
107019,99775
106993,99765
106955,99741
106958,99694
106920,99699
106867,99683
106878,99665
106943,99753
106966,99722
106935,99716
106939,99698
106932,99704
106957,99720
106975,99718
107011,99730
106994,99731
106980,99736
106998,99720
106998,99729
107027,99750
107006,99774
107096,99800
107090,99804
107080,99797
107092,99782
107110,99796
107084,99784
107131,99784
107113,99835
107103,99801
107161,99867
107198,99811
107166,99854
107191,99867
107169,99859
107180,99854
107205,99870
107203,99869
107227,99890
107221,99891
107231,99884
107238,99884
107253,99893
107288,99913
107235,99910
107282,99903
107266,99916
107292,99920
107323,99941
107335,99955
107352,99977
107368,99957
107378,99985
107377,99990
107401,100009
107406,100019
107414,100002
107416,100009
107439,100005
107442,100028
107444,100055
107469,100070
107482,100072
107505,100075
107471,100072
107478,100062
107454,100042
107454,100073
107452,100054
107471,100064
107462,100091
107464,100084
107484,100074
107460,100100
107471,100082
107470,100103
107499,100062
107481,100091
107480,100102
107459,100073
107467,100077
107444,100063
107447,100061
107448,100053
107412,100048
107413,100047
107407,100054
107416,100016
107357,100024
107372,100012
107354,100010
107330,100010
107313,99989
107311,99976
107304,99988
107315,99974
107298,99968
107317,99966
107269,99958
107301,99988
107291,99966
107290,99984
107281,99968
107291,99930
107265,99974
107299,99949
107249,99972
107269,99947
107229,99940
107265,99964
107246,99947
107238,99934
107203,99951
107192,99902
107190,99919
107198,99900
107212,99923
107207,99907
107210,99923
107215,99899
107191,99945
107225,99934
107214,99927
107221,99942
107232,99932
107202,99954
107241,99950
107196,99932
107194,99949
107199,99929
107221,99923
107173,99931
107216,99920
107218,99914
107191,99958
107180,99939
107195,99927
107197,99943
107197,99922
107164,99920
107178,99899
107158,99908
107144,99908
107156,99887
107119,99912
107142,99898
107141,99903
107138,99858
107159,99899
107137,99862
107106,99879
107100,99877
107083,99868
107062,99861
107069,99844
107057,99841
107031,99795
107033,99805
107035,99821
107032,99804
107002,99787
107004,99775
106997,99770
106982,99753
106955,99755
106967,99751
106926,99763
106954,99736
106890,99698
106899,99723
106889,99684
106879,99699
106863,99703
106876,99678
106839,99681
106846,99684
106796,99651
106798,99652
106794,99632
106816,99615
106747,99624
106797,99636
106785,99605
106727,99613
106741,99618
106748,99608
106722,99578
106726,99588
106698,99589
106705,99573
106700,99550
106662,99558
106672,99541
106673,99560
106671,99561
106701,99578
106731,99619
106753,99641
106746,99645
106830,99689
106814,99713
106846,99724
106868,99757
106875,99773
106944,99798
106962,99817
107034,99837
107051,99863
107084,99897
107091,99915
107129,99921
107141,99944
107148,99935
107173,99955
107184,99932
107187,99941
107214,99947
107209,99943
107236,99982
107228,99985
107256,99949
107240,99969
107242,99972
107225,99972
107293,99960
107232,99954
107269,99967
107228,99971
107228,99965
107277,99956
107229,99940
107215,99946
107214,99926
107225,99932
107193,99920
107237,99938
107211,99926
107232,99915
107194,99912
107237,99910
107202,99926
107256,99945
107227,99927
107251,99935
107239,99918
107227,99922
107272,99948
107257,99947
107271,99946
107242,99956
107247,99956
107250,99954
107251,99933
107273,99956
107298,99951
107283,99935
107298,99955
107281,99959
107317,99953
107289,99974
107318,99956
107291,99938
107281,99931
107277,99931
107265,99940
107273,99895
107218,99914
107240,99900
107214,99864
107208,99896
107186,99873
107202,99899
107175,99872
107174,99891
107170,99861
107195,99868
107157,99856
107174,99866
107181,99861
107170,99867
107170,99869
107197,99854
107151,99867
107207,99887
107199,99867
107227,99877
107221,99875
107200,99886
107212,99896
107214,99884
107189,99894
107201,99857
107199,99868
107196,99856
107217,99870
107193,99860
107196,99876
107177,99857
107205,99854
107191,99860
107216,99864
107197,99849
107198,99865
107188,99856
107210,99868
107226,99860
107176,99864
107229,99868
107213,99877
107221,99871
107238,99870
107237,99864
107250,99887
107242,99877
107240,99878
107247,99884
107222,99895
107234,99893
107265,99907
107246,99881
107266,99879
107262,99882
107247,99887
107275,99886
107272,99918
107314,99903
107296,99936
107285,99911
107320,99909
107287,99927
107330,99921
107343,99899
107351,99933
107374,99917
107348,99920
107383,99938
107388,99927
107372,99942
107404,99949
107434,99946
107398,99939
107436,99971
107386,99955
107413,99947
107371,99934
107439,99937
107390,99897
107377,99923
107439,99970
107480,99976
107560,100031
107548,99987
107552,100026
107560,100035
107600,100051
107595,100030
107551,100061
107611,100056
107604,100073
107591,100037
107577,100034
107567,100061
107594,100053
107554,100053
107571,100058
107586,100035
107632,100083
107625,100057
107647,100103
107618,100084
107626,100090
107676,100120
107654,100127
107630,100108
107649,100091
107689,100120
107690,100103
107702,100097
107672,100120
107702,100136
107691,100140
107712,100136
107707,100146
107721,100122
107693,100124
107720,100149
107738,100130
107736,100124
107714,100108
107729,100130
107699,100120
107732,100137
107693,100123
107725,100153
107705,100143
107687,100145
107728,100139
107716,100145
107692,100099
107691,100114
107715,100114
107652,100112
107658,100109
107669,100076
107599,100084
107645,100063
107597,100066
107544,100021
107609,100060
107579,100017
107545,100015
107516,100026
107488,99978
107478,99964
107469,99967
107452,99934
107446,99930
107411,99909
107393,99905
107360,99882
107344,99859
107342,99843
107317,99841
107288,99842
107274,99828
107229,99818
107252,99819
107252,99801
107197,99797
107200,99782
107200,99767
107210,99791
107206,99775
107186,99777
107189,99779
107171,99761
107157,99764
107138,99737
107123,99735
107098,99712
107078,99683
107061,99701
107055,99696
107010,99651
106995,99662
106985,99642
106982,99648
106982,99640
106974,99635
106933,99626
106960,99649
106971,99623
106947,99612
106928,99599
106929,99604
106915,99595
106895,99586
106928,99579
106899,99584
106911,99562
106871,99584
106885,99566
106906,99550
106871,99581
106872,99572
106885,99540
106867,99566
106851,99553
106854,99549
106834,99548
106814,99531
106803,99520
106788,99513
106774,99497
106766,99490
106750,99473
106771,99483
106753,99483
106748,99478
106740,99499
106723,99470
106741,99466
106731,99448
106709,99451
106708,99447
106703,99439
106692,99423
106697,99413
106677,99404
106657,99391
106670,99407
106654,99401
106673,99401
106639,99400
106659,99392
106662,99392
106621,99378
106657,99396
106607,99382
106655,99412
106657,99380
106637,99389
106655,99411
106632,99375
106625,99379
106644,99376
106607,99390
106621,99348
106575,99369
106639,99394
106595,99349
106613,99364
106587,99325
106550,99359
106586,99336
106528,99351
106581,99336
106561,99330
106524,99324
106551,99338
106538,99298
106517,99304
106476,99278
106507,99285
106481,99281
106430,99259
106437,99242
106408,99207
106396,99205
106403,99196
106362,99190
106353,99181
106315,99149
106323,99174
106334,99151
106296,99140
106284,99132
106305,99136
106279,99119
106295,99114
106276,99098
106263,99112
106252,99096
106249,99075
106225,99083
106245,99096
106240,99087
106229,99082
106249,99089
106213,99075
106190,99074
106217,99061
106216,99074
106238,99050
106193,99051
106240,99057
106199,99075
106189,99058
106213,99074
106221,99065
106218,99084
106230,99076
106217,99077
106239,99075
106228,99066
106201,99057
106194,99066
106205,99058
106187,99055
106202,99053
106134,99033
106175,99034
106176,99025
106146,99017
106149,99028
106124,99000
106153,99012
106150,98986
106115,99008
106140,99016
106106,99007
106152,98974
106108,98986
106101,98991
106140,99022
106114,98962
106117,98981
106104,98984
106053,98961
106101,98963
106081,98943
106105,98957
106108,98941
106089,98952
106096,98944
106044,98955
106087,98951
106069,98948
106081,98963
106090,98960
106085,98960
106089,98977
106099,98955
106079,98958
106099,98969
106111,98982
106114,98979
106068,98956
106077,98949
106071,98963
106091,98952
106066,98953
106030,98951
106054,98929
106040,98939
106019,98934
106015,98934
105985,98938
106014,98925
105993,98906
105980,98923
106000,98905
105979,98911
105978,98907
105984,98907
105969,98921
106015,98897
105976,98883
105967,98896
106008,98887
105950,98897
106000,98903
105981,98884
106005,98884
105977,98895
105996,98902
105992,98901
105965,98912
105993,98913
106047,98930
106001,98956
106065,98965
106063,98950
106068,98954
106080,98973
106098,98985
106119,98997
106115,99019
106103,98976
106107,98992
106116,99010
106080,98998
106106,98965
106096,98992
106106,99000
106080,98991
106111,99015
106096,98998
106106,98988
106097,99003
106132,99024
106132,99014
106136,99006
106141,99032
106116,99020
106159,99032
106163,99038
106166,99028
106184,99059
106168,99040
106163,99030
106161,99031
106162,99049
106165,99039
106148,99025
106156,99036
106156,99027
106188,99041
106138,99029
106156,99011
106162,99037
106163,99053
106161,99013
106136,99035
106177,99070
106156,99037
106130,99027
106168,99042
106168,99038
106180,99035
106142,99046
106191,99041
106186,99032
106183,99053
106200,99048
106161,99054
106171,99076
106197,99064
106183,99074
106165,99067
106208,99032
106172,99063
106206,99074
106197,99062
106175,99065
106197,99071
106199,99094
106204,99057
106176,99076
106203,99077
106185,99070
106182,99066
106214,99076
106218,99086
106213,99079
106206,99091
106229,99094
106254,99122
106240,99125
106239,99133
106261,99153
106245,99120
106295,99158
106277,99131
106298,99128
106258,99134
106307,99151
106275,99134
106281,99130
106271,99127
106281,99115
106258,99101
106269,99122
106263,99106
106275,99107
106240,99108
106198,99084
106227,99092
106241,99080
106193,99081
106208,99065
106230,99063
106166,99048
106208,99065
106190,99044
106184,99040
106190,99049
106175,99030
106176,99027
106168,99015
106177,99042
106179,99006
106186,99024
106158,99033
106189,99036
106176,99052
106198,99043
106169,99009
106190,99025
106206,99015
106193,99055
106214,99038
106206,99058
106226,99042
106204,99037
106226,99055
106191,99075
106206,99033
106202,99053
106216,99051
106191,99044
106210,99042
106217,99044
106222,99056
106227,99070
106214,99078
106211,99049
106228,99060
106238,99078
106249,99039
106224,99074
106254,99081
106257,99066
106276,99084
106266,99076
106271,99076
106252,99116
106283,99124
106269,99111
106289,99126
106284,99119
106280,99141
106308,99129
106323,99120
106319,99166
106326,99160
106364,99164
106351,99174
106349,99160
106377,99189
106356,99198
106404,99222
106372,99204
106401,99211
106408,99216
106423,99232
106419,99238
106428,99241
106446,99250
106440,99240
106449,99243
106445,99219
106451,99229
106448,99231
106461,99266
106453,99245
106432,99257
106474,99255
106432,99241
106472,99245
106442,99254
106442,99257
106477,99274
106479,99264
106482,99268
106478,99270
106472,99265
106515,99292
106500,99262
106484,99268
106517,99262
106517,99277
106473,99265
106511,99289
106523,99254
106485,99270
106482,99231
106481,99266
106497,99262
106460,99234
106500,99256
106479,99233
106450,99254
106451,99271
106469,99214
106393,99221
106469,99230
106420,99226
106419,99223
106403,99199
106401,99212
106390,99189
106389,99216
106397,99195
106361,99204
106374,99193
106382,99172
106398,99211
106384,99190
106367,99193
106365,99196
106393,99204
106364,99212
106392,99177
106352,99177
106378,99176
106392,99197
106384,99188
106377,99184
106402,99204
106378,99184
106385,99218
106396,99202
106390,99212
106428,99225
106394,99221
106438,99221
106441,99234
106449,99235
106462,99213
106424,99247
106452,99255
106445,99215
106419,99241
106412,99218
106434,99235
106444,99228
106416,99212
106419,99233
106419,99213
106409,99198
106408,99207
106407,99212
106406,99211
106414,99226
106420,99222
106427,99213
106423,99207
106449,99212
106418,99225
106423,99222
106434,99221
106419,99211
106421,99201
106431,99203
106455,99193
106443,99214
106441,99200
106446,99195
106457,99237
106456,99234
106465,99251
106438,99219
106455,99222
106442,99235
106459,99212
106424,99218
106465,99215
106450,99209
106434,99207
106433,99214
106451,99234
106445,99216
106444,99216
106467,99206
106449,99213
106488,99220
106469,99229
106443,99196
106460,99231
106469,99213
106426,99213
106443,99197
106450,99207
106451,99218
106449,99215
106438,99198
106453,99216
106437,99184
106497,99224
106433,99202
106440,99226
106455,99212
106416,99190
106439,99190
106432,99182
106452,99206
106455,99213
106435,99206
106460,99189
106448,99223
106475,99217
106453,99208
106470,99217
106445,99243
106490,99221
106503,99230
106495,99233
106486,99237
106528,99256
106512,99255
106518,99261
106552,99252
106574,99257
106546,99308
106601,99323
106608,99333
106617,99358
106636,99335
106696,99406
106699,99399
106723,99407
106749,99429
106807,99447
106799,99460
106814,99475
106824,99487
106859,99485
106871,99493
106876,99465
106860,99492
106879,99500
106868,99500
106874,99487
106887,99500
106890,99486
106899,99495
106887,99513
106900,99513
106894,99500
106901,99485
106888,99496
106896,99501
106933,99514
106897,99496
106880,99487
106885,99476
106874,99453
106874,99462
106891,99455
106829,99449
106873,99465
106852,99481
106841,99458
106850,99446
106848,99435
106829,99436
106810,99431
106818,99438
106816,99436
106794,99439
106783,99390
106830,99410
106771,99401
106829,99400
106800,99422
106816,99421
106789,99430
106802,99388
106792,99427
106786,99405
106763,99400
106799,99419
106793,99370
106770,99381
106787,99404
106773,99416
106802,99405
106757,99406
106765,99396
106756,99382
106747,99371
106764,99384
106741,99375
106773,99380
106779,99405
106768,99368
106774,99370
106741,99382
106771,99388
106745,99399
106765,99367
106745,99378
106747,99382
106716,99381
106759,99376
106702,99342
106695,99329
106699,99344
106693,99321
106643,99342
106655,99352
106684,99334
106671,99309
106654,99313
106655,99317
106660,99330
106653,99333
106685,99311
106690,99322
106660,99336
106685,99304
106702,99313
106689,99328
106692,99328
106676,99333
106656,99320
106708,99355
106683,99313
106661,99342
106668,99323
106667,99315
106670,99320
106670,99324
106679,99301
106682,99300
106675,99321
106667,99314
106677,99320
106712,99306
106665,99325
106718,99336
106669,99338
106703,99345
106693,99341
106676,99330
106708,99297
106711,99310
106687,99307
106691,99326
106664,99314
106689,99323
106687,99314
106714,99340
106721,99324
106732,99311
106698,99334
106730,99365
106727,99351
106717,99376
106766,99368
106746,99358
106739,99364
106744,99356
106757,99354
106787,99378
106759,99384
106807,99368
106747,99362
106799,99383
106803,99383
106780,99405
106823,99384
106816,99390
106852,99403
106820,99401
106859,99442
106848,99437
106879,99430
106900,99438
106888,99427
106922,99470
106946,99454
106914,99467
106965,99479
106969,99482
106963,99502
106990,99483
107025,99520
107035,99530
107030,99505
107024,99544
107058,99535
107061,99545
107094,99543
107072,99554
107093,99556
107129,99560
107153,99595
107159,99590
107197,99602
107234,99638
107229,99650
107271,99676
107302,99667
107314,99688
107337,99689
107390,99725
107438,99759
107422,99755
107436,99773
107495,99796
107486,99784
107533,99791
107558,99835
107576,99844
107590,99816
107617,99842
107627,99870
107645,99870
107668,99888
107708,99904
107719,99907
107710,99914
107716,99894
107711,99876
107739,99906
107721,99912
107727,99901
107718,99943
107755,99891
107723,99927
107746,99910
107731,99928
107746,99910
107720,99903
107749,99910
107741,99911
107726,99899
107680,99900
107734,99922
107704,99883
107726,99888
107713,99879
107707,99877
107682,99880
107720,99883
107740,99910
107708,99897
107700,99888
107687,99898
107701,99875
107670,99879
107700,99883
107669,99867
107665,99874
107665,99852
107672,99853
107679,99849
107609,99848
107665,99849
107617,99841
107619,99843
107640,99824
107629,99852
107637,99861
107636,99838
107629,99814
107577,99798
107567,99815
107572,99815
107519,99778
107527,99779
107521,99793
107502,99766
107472,99741
107430,99735
107427,99707
107423,99696
107377,99709
107387,99681
107368,99665
107313,99678
107338,99647
107274,99638
107283,99596
107215,99593
107187,99574
107155,99548
107082,99493
107053,99449
107005,99447
106948,99400
106895,99396
106843,99334
106796,99300
106759,99266
106714,99260
106692,99228
106615,99177
106564,99146
106526,99126
106522,99090
106439,99082
106457,99057
106393,99030
106370,98998
106334,99003
106339,98975
106342,98982
106338,98991
106276,98959
106293,98951
106284,98931
106275,98936
106288,98933
106288,98940
106240,98910
106284,98952
106286,98919
106258,98950
106258,98913
106279,98905
106269,98915
106247,98929
106256,98927
106268,98927
106273,98902
106228,98910
106236,98908
106211,98891
106237,98900
106223,98859
106244,98871
106232,98902
106207,98891
106218,98890
106204,98905
106244,98899
106212,98891
106258,98916
106219,98903
106211,98902
106232,98915
106227,98894
106238,98917
106268,98905
106242,98922
106228,98934
106248,98906
106263,98910
106255,98916
106277,98919
106239,98920
106268,98935
106248,98946
106243,98945
106265,98921
106276,98922
106273,98954
106281,98960
106274,98944
106284,98930
106265,98951
106266,98939
106300,98954
106283,98920
106282,98968
106245,98927
106288,98927
106260,98913
106264,98916
106283,98908
106233,98942
106266,98940
106258,98921
106260,98935
106273,98953
106285,98921
106272,98951
106290,98957
106295,98934
106341,98962
106280,98943
106349,98987
106344,98965
106331,98963
106333,98952
106353,98972
106323,98959
106352,98976
106349,98984
106326,98995
106387,98991
106372,99013
106403,99000
106392,99021
106396,99021
106408,99039
106411,99050
106418,99057
106457,99047
106443,99066
106458,99063
106459,99064
106464,99092
106497,99087
106514,99108
106521,99111
106526,99121
106522,99135
106553,99147
106597,99146
106581,99151
106595,99179
106633,99143
106607,99173
106624,99189
106644,99162
106606,99184
106658,99196
106645,99203
106640,99208
106668,99189
106656,99196
106641,99224
106670,99216
106704,99243
106711,99265
106719,99238
106677,99250
106716,99230
106706,99246
106729,99243
106713,99255
106767,99290
106760,99278
106778,99286
106766,99289
106815,99315
106808,99299
106834,99323
106853,99326
106836,99346
106877,99350
106841,99351
106859,99335
106878,99350
106900,99373
106866,99367
106925,99376
106908,99387
106925,99371
106932,99411
106966,99396
106934,99420
106996,99423
106978,99425
106979,99440
107001,99443
106991,99423
107002,99436
107034,99445
107004,99445
107026,99451
107025,99444
107055,99455
107064,99458
107025,99451
107083,99482
107052,99463
107089,99487
107067,99465
107078,99447
107064,99466
107049,99439
107054,99438
107025,99435
107030,99436
107019,99423
107004,99436
107010,99418
106965,99371
106999,99403
106960,99356
106911,99377
106897,99346
106894,99318
106841,99313
106882,99313
106823,99280
106796,99259
106754,99226
106753,99237
106677,99196
106714,99223
106661,99174
106649,99201
106653,99141
106648,99188
106595,99152
106623,99147
106579,99114
106577,99155
106546,99131
106556,99132
106516,99129
106556,99101
106508,99102
106531,99119
106485,99089
106538,99115
106515,99125
106553,99122
106556,99108
106545,99136
106568,99115
106527,99127
106557,99122
106563,99151
106577,99138
106567,99136
106598,99145
106584,99174
106590,99138
106596,99133
106570,99156
106605,99175
106573,99132
106603,99151
106598,99141
106583,99152
106618,99157
106601,99156
106633,99170
106615,99149
106624,99181
106605,99174
106620,99151
106631,99174
106626,99198
106631,99169
106619,99171
106663,99171
106646,99164
106649,99190
106626,99181
106648,99189
106613,99192
106633,99217
106643,99184
106672,99194
106697,99193
106636,99213
106684,99189
106666,99197
106664,99168
106655,99183
106688,99177
106644,99203
106647,99173
106677,99190
106654,99160
106655,99183
106679,99175
106671,99185
106656,99187
106662,99193
106660,99156
106665,99168
106680,99170
106640,99173
106675,99167
106671,99199
106642,99162
106657,99203
106682,99164
106656,99175
106688,99174
106674,99156
106685,99163
106605,99154
106663,99179
106668,99159
106638,99166
106632,99134
106651,99185
106650,99146
106596,99140
106647,99159
106643,99128
106629,99142
106672,99168
106646,99148
106610,99140
106646,99149
106632,99137
106640,99153
106625,99093
106607,99151
106630,99129
106638,99154
106615,99117
106607,99134
106623,99110
106586,99128
106635,99137
106625,99121
106569,99107
106581,99077
106575,99102
106596,99108
106532,99071
106558,99091
106541,99089
106568,99050
106564,99056
106500,99046
106563,99073
106546,99031
106551,99056
106550,99046
106522,99039
106547,99045
106511,99060
106535,99041
106527,99037
106522,99045
106536,99041
106519,99025
106539,99039
106505,99043
106525,99031
106537,99034
106533,99033
106481,99026
106525,99028
106513,99017
106476,99039
106524,99006
106443,99000
106522,99036
106517,99026
106492,99004
106514,99030
106504,99024
106520,99006
106538,99005
106488,99037
106560,99040
106520,99050
106566,99051
106545,99047
106552,99054
106577,99068
106575,99059
106575,99070
106597,99086
106614,99044
106560,99056
106601,99092
106592,99071
106553,99042
106567,99061
106564,99018
106519,99047
106532,99032
106525,99024
106536,99049
106525,99041
106532,99028
106553,99038
106543,99053
106494,99037
106547,99052
106570,99027
106525,99060
106570,99071
106525,99041
106556,99034
106525,99044
106552,99036
106575,99076
106538,99046
106541,99039
106535,99050
106518,99044
106540,99057
106530,99036
106541,99057
106559,99016
106522,99045
106529,99046
106518,99050
106512,99043
106504,99046
106504,99035
106504,99030
106449,99034
106472,99007
106452,99050
106448,99020
106417,99009
106428,99003
106409,98987
106436,99024
106454,99000
106399,99009
106448,99029
106446,99011
106448,99007
106427,98992
106465,99036
106444,99027
106464,99042
106477,99031
106491,99050
106492,99059
106526,99067
106495,99063
106546,99086
106539,99096
106545,99076
106580,99112
106573,99115
106539,99099
106608,99118
106590,99107
106604,99097
106626,99126
106572,99122
106616,99117
106611,99103
106626,99116
106632,99144
106608,99118
106631,99136
106641,99126
106586,99116
106609,99091
106620,99139
106627,99103
106632,99158
106621,99142
106634,99143
106659,99135
106631,99122
106652,99129
106678,99144
106653,99162
106714,99163
106643,99173
106704,99160
106695,99159
106710,99186
106691,99163
106710,99189
106711,99192
106754,99200
106745,99183
106763,99213
106753,99181
106718,99199
106736,99185
106744,99195
106762,99197
106773,99215
106803,99191
106768,99225
106796,99221
106804,99199
106821,99262
106843,99259
106809,99264
106874,99282
106897,99280
106889,99295
106910,99279
106940,99312
106935,99300
106934,99316
106946,99299
106947,99319
106956,99325
106968,99322
106973,99313
106955,99338
106976,99315
106960,99339
106993,99328
107022,99359
107006,99359
107005,99373
107031,99385
107061,99388
107043,99390
107050,99389
107069,99368
107058,99400
107085,99388
107094,99396
107088,99396
107088,99393
107095,99396
107107,99378
107106,99397
107115,99392
107113,99397
107104,99413
107113,99406
107107,99418
107129,99417
107131,99404
107128,99405
107157,99410
107140,99432
107173,99412
107167,99420
107159,99412
107183,99415
107174,99441
107178,99430
107197,99417
107179,99435
107188,99457
107204,99412
107151,99415
107224,99439
107194,99432
107187,99422
107174,99433
107148,99425
107183,99440
107196,99421
107160,99438
107193,99425
107185,99431
107191,99425
107195,99428
107194,99440
107208,99418
107196,99439
107193,99436
107228,99441
107243,99459
107221,99430
107240,99452
107240,99445
107244,99467
107240,99462
107254,99474
107243,99442
107241,99469
107252,99451
107255,99425
107240,99435
107256,99456
107247,99453
107238,99450
107250,99468
107270,99438
107264,99444
107274,99461
107264,99442
107271,99469
107270,99443
107292,99465
107292,99430
107265,99454
107290,99483
107293,99458
107285,99435
107335,99477
107294,99484
107301,99468
107298,99478
107316,99444
107297,99462
107300,99451
107296,99452
107249,99443
107239,99417
107194,99423
107168,99396
107156,99397
107118,99392
107129,99371
107082,99372
107086,99352
107086,99370
107086,99358
107037,99352
107080,99350
107052,99372
107079,99340
107075,99355
107077,99355
107102,99364
107091,99387
107133,99351
107136,99391
107122,99384
107172,99399
107177,99411
107152,99382
107167,99411
107145,99401
107162,99405
107171,99404
107178,99426
107175,99384
107167,99392
107193,99395
107169,99390
107193,99389
107185,99413
107196,99422
107227,99395
107207,99418
107213,99413
107225,99424
107253,99435
107261,99421
107246,99443
107260,99462
107237,99433
107264,99446
107267,99431
107250,99430
107255,99452
107267,99450
107209,99446
107251,99424
107266,99444
107235,99424
107257,99413
107226,99461
107272,99432
107255,99452
107224,99418
107287,99446
107279,99435
107241,99439
107282,99460
107266,99442
107281,99425
107294,99452
107286,99425
107307,99442
107266,99455
107310,99453
107273,99429
107322,99443
107289,99438
107300,99433
107274,99460
107261,99429
107261,99432
107272,99450
107238,99433
107289,99439
107280,99423
107285,99435
107282,99418
107311,99457
107283,99443
107299,99418
107284,99452
107351,99464
107313,99453
107314,99450
107344,99450
107321,99458
107334,99466
107356,99453
107348,99451
107351,99457
107352,99432
107341,99471
107315,99482
107349,99466
107335,99452
107371,99458
107323,99452
107377,99468
107363,99480
107378,99485
107401,99481
107372,99466
107434,99505
107430,99497
107387,99497
107428,99490
107450,99480
107464,99521
107447,99493
107460,99505
107468,99502
107473,99521
107504,99524
107490,99538
107509,99533
107516,99566
107497,99552
107502,99544
107548,99573
107530,99534
107571,99545
107521,99571
107573,99583
107582,99581
107563,99580
107607,99585
107614,99590
107586,99577
107607,99582
107632,99591
107624,99584
107626,99598
107633,99596
107650,99592
107645,99611
107659,99618
107693,99619
107658,99617
107701,99594
107653,99609
107703,99589
107703,99629
107714,99612
107725,99639
107733,99613
107741,99632
107715,99617
107704,99626
107723,99625
107756,99640
107753,99641
107735,99620
107736,99631
107752,99636
107742,99647
107745,99640
107750,99634
107783,99650
107754,99659
107762,99645
107778,99638
107780,99640
107769,99647
107773,99645
107762,99645
107755,99649
107773,99629
107761,99637
107777,99651
107772,99659
107774,99644
107750,99667
107765,99623
107742,99653
107763,99641
107742,99630
107738,99633
107685,99615
107746,99644
107735,99603
107743,99644
107723,99607
107712,99616
107711,99586
107703,99603
107715,99602
107720,99606
107699,99592
107673,99589
107687,99570
107695,99577
107653,99569
107658,99595
107663,99564
107649,99570
107632,99577
107648,99573
107597,99566
107628,99569
107607,99560
107587,99558
107560,99561
107531,99541
107545,99528
107510,99504
107515,99507
107458,99514
107509,99511
107492,99499
107471,99506
107459,99499
107442,99471
107437,99494
107456,99496
107427,99502
107467,99467
107435,99510
107490,99474
107448,99498
107459,99466
107457,99511
107506,99498
107450,99499
107493,99497
107483,99532
107504,99519
107513,99518
107490,99526
107508,99509
107500,99497
107490,99519
107483,99510
107518,99489
107493,99512
107510,99501
107483,99490
107489,99496
107477,99484
107496,99508
107458,99513
107473,99489
107442,99484
107492,99524
107478,99488
107465,99479
107470,99491
107487,99509
107497,99494
107458,99496
107484,99498
107460,99508
107458,99499
107514,99526
107477,99513
107498,99520
107499,99516
107492,99509
107541,99508
107496,99511
107528,99520
107516,99511
107524,99527
107561,99500
107572,99554
107556,99511
107563,99518
107594,99548
107591,99554
107607,99534
107567,99543
107599,99569
107597,99551
107633,99549
107650,99563
107593,99584
107634,99564
107647,99576
107655,99563
107670,99572
107655,99568
107729,99616
107722,99587
107687,99612
107739,99616
107747,99618
107781,99623
107747,99626
107816,99639
107823,99679
107822,99630
107865,99658
107849,99678
107884,99666
107904,99670
107910,99662
107913,99688
107939,99683
107927,99710
107965,99691
107924,99708
107966,99714
107992,99698
107987,99739
107980,99704
108029,99744
108055,99717
108026,99761
108058,99761
108065,99759
108095,99761
108098,99771
108133,99762
108111,99787
108103,99773
108159,99799
108152,99789
108167,99821
108164,99797
108186,99814
108201,99813
108185,99808
108221,99802
108195,99825
108248,99827
108253,99819
108260,99833
108262,99846
108276,99847
108271,99866
108310,99861
108280,99867
108319,99880
108329,99869
108338,99843
108337,99873
108316,99854
108378,99879
108342,99875
108363,99867
108329,99861
108334,99893
108357,99878
108374,99890
108382,99875
108377,99886
108396,99882
108383,99915
108374,99879
108362,99913
108387,99888
108360,99909
108379,99902
108347,99894
108372,99919
108375,99881
108378,99892
108404,99911
108372,99931
108425,99945
108450,99929
108443,99954
108429,99927
108441,99918
108475,99943
108479,99960
108501,99947
108494,99972
108509,99957
108529,99968
108512,99964
108546,99992
108579,99979
108542,100000
108539,99978
108546,100000
108571,99998
108522,99996
108585,99994
108583,100021
108581,100002
108572,100008
108590,99998
108565,99995
108566,99967
108568,99974
108546,99985
108547,99982
108523,99994
108536,99958
108517,99969
108501,99971
108513,99956
108529,99939
108472,99931
108513,99936
108464,99915
108513,99937
108506,99936
108501,99947
108527,99922
108522,99956
108526,99957
108551,99985
108577,99968
108588,99972
108597,99968
108613,100003
108612,99982
108614,99972
108593,99988
108618,99974
108624,99994
108642,99990
108635,100007
108652,100004
108653,100004
108651,100001
108667,100016
108677,100018
108668,100008
108663,100003
108678,100034
108660,100044
108670,100041
108695,100009
108665,100038
108699,100036
108679,100058
108681,100045
108711,100039
108675,100044
108680,100039
108664,99998
108678,100035
108671,100029
108664,100037
108686,100037
108675,100033
108689,100037
108700,100038
108710,100063
108708,100050
108724,100069
108753,100042
108725,100055
108704,100053
108765,100092
108731,100071
108752,100073
108742,100080
108732,100061
108762,100095
108787,100064
108721,100076
108733,100072
108774,100071
108763,100075
108774,100064
108737,100068
108756,100075
108790,100098
108750,100092
108746,100097
108773,100080
108784,100100
108788,100074
108760,100098
108806,100086
108795,100101
108799,100091
108793,100096
108811,100086
108802,100092
108830,100097
108839,100093
108811,100087
108817,100109
108806,100108
108832,100111
108840,100119
108850,100117
108832,100132
108814,100108
108818,100114
108839,100132
108867,100112
108852,100140
108877,100123
108870,100119
108882,100122
108892,100135
108920,100138
108938,100143
108952,100145
108932,100139
108936,100144
108941,100153
108956,100154
108970,100166
108960,100145
108948,100160
108955,100162
108979,100169
108982,100176
108978,100175
108960,100177
108985,100166
108997,100178
109010,100199
109026,100178
109044,100219
109027,100198
109042,100215
109065,100187
109058,100222
109088,100231
109096,100234
109105,100219
109104,100209
109098,100219
109131,100233
109095,100222
109162,100206
109122,100249
109121,100220
109133,100241
109177,100256
109172,100248
109165,100232
109167,100229
109224,100273
109212,100227
109207,100253
109219,100258
109234,100263
109248,100273
109210,100278
109299,100282
109273,100300
109301,100278
109312,100280
109338,100295
109307,100292
109333,100290
109313,100287
109359,100305
109343,100296
109350,100316
109336,100310
109372,100315
109387,100323
109347,100347
109383,100344
109408,100327
109390,100319
109379,100348
109396,100318
109407,100340
109381,100321
109384,100346
109366,100324
109330,100329
109347,100304
109304,100288
109253,100270
109235,100247
109148,100238
109181,100220
109110,100216
109043,100191
109005,100173
109007,100167
108968,100154
108977,100153
108960,100145
108977,100147
108923,100151
108954,100130
108912,100149
108942,100131
108937,100159
108948,100138
108947,100133
108933,100162
108964,100148
108939,100135
108991,100176
108949,100147
109001,100178
109003,100186
109013,100180
109016,100188
109048,100170
109008,100191
109042,100198
109007,100197
109074,100198
109043,100204
109051,100190
109058,100191
109063,100203
109068,100214
109057,100195
109055,100189
109031,100192
109053,100197
109058,100208
109010,100173
109068,100209
109009,100181
109045,100202
109042,100184
109056,100181
109039,100191
109040,100187
109051,100170
109039,100177
109056,100176
109054,100193
109046,100189
109029,100207
109055,100197
109088,100206
109102,100203
109051,100203
109103,100225
109088,100225
109098,100239
109101,100221
109136,100234
109126,100235
109106,100216
109143,100219
109154,100231
109166,100237
109169,100223
109181,100240
109189,100241
109169,100232
109191,100256
109208,100234
109189,100243
109191,100256
109179,100243
109186,100241
109208,100242
109201,100247
109181,100240
109199,100246
109185,100228
109175,100259
109180,100255
109197,100254
109207,100251
109213,100252
109222,100280
109237,100273
109215,100285
109241,100268
109250,100287
109265,100281
109281,100267
109303,100278
109300,100292
109316,100289
109311,100290
109331,100305
109340,100323
109328,100311
109335,100302
109341,100309
109343,100298
109358,100292
109359,100315
109359,100305
109367,100330
109374,100337
109382,100322
109374,100328
109380,100322
109394,100331
109392,100335
109398,100345
109405,100341
109429,100330
109427,100333
109443,100324
109452,100326
109461,100323
109499,100329
109499,100321
109536,100332
109559,100363
109597,100344
109578,100365
109603,100364
109592,100371
109627,100395
109657,100390
109643,100394
109698,100415
109720,100442
109717,100424
109719,100410
109735,100429
109753,100465
109754,100461
109739,100473
109791,100471
109775,100471
109806,100482
109809,100491
109831,100517
109799,100529
109822,100520
109858,100516
109849,100539
109873,100538
109859,100546
109859,100548
109892,100548
109894,100574
109909,100580
109922,100548
109917,100567
109944,100582
109969,100581
109995,100624
109970,100629
109987,100621
110008,100635
110034,100648
110050,100617
110053,100634
110043,100657
110076,100645
110082,100644
110084,100665
110078,100673
110116,100674
110121,100659
110123,100648
110140,100665
110123,100664
110131,100672
110162,100711
110153,100704
110142,100690
110143,100681
110102,100672
110056,100657
110043,100629
110019,100630
109975,100609
109935,100593
109915,100592
109869,100577
109854,100566
109849,100565
109843,100561
109831,100565
109808,100559
109819,100554
109816,100569
109786,100567
109792,100563
109800,100576
109791,100573
109806,100571
109830,100566
109817,100588
109835,100596
109827,100592
109826,100575
109834,100587
109831,100601
109854,100600
109862,100605
109878,100605
109890,100616
109870,100629
109892,100619
109903,100642
109895,100640
109900,100641
109904,100640
109911,100648
109904,100623
109902,100642
109917,100632
109926,100641
109929,100619
109903,100643
109892,100667
109916,100655
109890,100640
109900,100658
109897,100652
109908,100660
109942,100685
109919,100694
109919,100665
109933,100684
109928,100678
109925,100688
109941,100701
109958,100708
109981,100729
109991,100727
110000,100746
110021,100759
110037,100761
110029,100763
110044,100755
110034,100768
110052,100769
110067,100770
110073,100776
110065,100769
110090,100780
110093,100784
110076,100778
110102,100798
110080,100798
110077,100821
110093,100809
110066,100790
110069,100804
110068,100806
110054,100797
110062,100840
110126,100818
110100,100830
110105,100833
110097,100843
110092,100837
110110,100833
110128,100820
110094,100836
110092,100863
110099,100861
110075,100843
110111,100840
110083,100860
110042,100857
110101,100856
110071,100859
110112,100859
110087,100886
110073,100875
110109,100844
110050,100864
110093,100866
110069,100841
110062,100847
110073,100854
109989,100854
110069,100864
110029,100849
110060,100854
110026,100845
110002,100848
110005,100839
110021,100836
109982,100833
110001,100845
109974,100864
109970,100838
109967,100843
109945,100836
109948,100827
109942,100824
109902,100823
109898,100795
109863,100815
109838,100808
109824,100783
109838,100790
109809,100781
109781,100785
109756,100759
109744,100751
109754,100754
109672,100735
109667,100750
109685,100724
109617,100734
109596,100687
109612,100721
109567,100686
109532,100673
109508,100664
109455,100669
109422,100611
109406,100610
109368,100604
109329,100609
109279,100557
109262,100555
109232,100519
109177,100494
109160,100478
109112,100490
109122,100467
109052,100453
109070,100422
109028,100423
108965,100423
108978,100406
108948,100375
108909,100366
108895,100341
108847,100333
108837,100322
108859,100308
108797,100302
108807,100278
108790,100307
108761,100278
108737,100278
108711,100285
108673,100243
108704,100227
108638,100248
108677,100253
108675,100235
108624,100239
108626,100212
108623,100232
108635,100228
108612,100202
108585,100209
108586,100214
108616,100213
108589,100200
108595,100198
108597,100218
108612,100218
108589,100233
108616,100230
108619,100238
108597,100261
108671,100257
108695,100276
108673,100306
108732,100337
108759,100361
108783,100385
108858,100405
108872,100430
108910,100463
108906,100468
108978,100473
108949,100500
109032,100522
109033,100531
109045,100528
109034,100535
109085,100559
109058,100573
109101,100564
109133,100587
109163,100610
109146,100616
109162,100646
109197,100633
109204,100648
109221,100644
109224,100652
109260,100681
109271,100645
109286,100677
109303,100676
109286,100664
109315,100684
109329,100655
109320,100687
109346,100696
109345,100692
109342,100698
109339,100695
109347,100708
109345,100678
109349,100705
109341,100700
109339,100700
109338,100693
109374,100700
109304,100699
109331,100706
109337,100691
109336,100730
109304,100669
109353,100708
109347,100682
109321,100698
109333,100706
109344,100715
109384,100706
109318,100691
109340,100706
109329,100703
109379,100694
109324,100704
109357,100697
109323,100706
109303,100677
109309,100685
109283,100665
109293,100689
109277,100656
109301,100680
109263,100674
109284,100697
109260,100662
109275,100667
109249,100644
109237,100649
109271,100659
109223,100644
109208,100645
109203,100644
109221,100615
109217,100633
109213,100616
109197,100622
109176,100600
109177,100604
109134,100587
109132,100574
109139,100581
109117,100565
109137,100543
109062,100538
109101,100548
109068,100533
109042,100521
109030,100519
109048,100503
109013,100493
109027,100498
109002,100511
108975,100463
109003,100488
108973,100454
108957,100456
108913,100423
108953,100433
108888,100404
108888,100411
108891,100393
108884,100383
108848,100386
108844,100400
108845,100404
108832,100356
108814,100375
108821,100387
108828,100369
108855,100363
108842,100349
108819,100353
108816,100351
108798,100355
108788,100353
108806,100334
108782,100328
108810,100334
108743,100320
108780,100325
108787,100340
108781,100347
108747,100309
108796,100354
108794,100297
108787,100290
108740,100304
108753,100299
108722,100291
108739,100289
108693,100272
108691,100282
108671,100245
108677,100256
108647,100272
108604,100239
108639,100235
108641,100223
108585,100206
108576,100213
108572,100202
108574,100220
108572,100212
108584,100207
108570,100205
108550,100195
108545,100191
108606,100208
108569,100196
108583,100218
108590,100191
108615,100234
108626,100205
108586,100238
108639,100230
108627,100228
108646,100248
108628,100222
108623,100264
108642,100233
108636,100249
108609,100224
108610,100218
108648,100255
108627,100236
108650,100248
108615,100241
108628,100238
108674,100233
108627,100251
108650,100284
108659,100241
108676,100264
108654,100266
108679,100239
108677,100298
108687,100267
108682,100280
108687,100258
108691,100275
108681,100268
108721,100256
108659,100288
108714,100299
108694,100288
108712,100298
108726,100326
108724,100332
108724,100309
108781,100308
108749,100320
108765,100349
108785,100330
108754,100336
108764,100344
108799,100324
108766,100352
108764,100368
108792,100361
108776,100371
108807,100360
108789,100376
108822,100376
108813,100398
108813,100390
108816,100393
108829,100398
108854,100401
108862,100405
108856,100420
108892,100383
108873,100408
108894,100409
108899,100449
108897,100434
108906,100422
108921,100423
108925,100421
108901,100460
108940,100456
108967,100446
108934,100436
108949,100449
108948,100456
108950,100459
108948,100472
108943,100440
108933,100444
108938,100475
108973,100455
108926,100474
108983,100481
108992,100479
108967,100473
108961,100477
108966,100491
108976,100463
109006,100497
108985,100482
108984,100457
108980,100484
109006,100509
108980,100484
108978,100488
108979,100481
108947,100469
108992,100466
108954,100482
109009,100502
108980,100478
108999,100506
108997,100482
108978,100482
109006,100462
108971,100483
108991,100471
108966,100482
108958,100459
108943,100469
108978,100472
108949,100478
108921,100450
108953,100458
108962,100449
108980,100473
108941,100470
108969,100461
108931,100478
108968,100476
108971,100467
108921,100464
108916,100463
108950,100476
108949,100469
108946,100457
108932,100428
108959,100477
108925,100444
108946,100470
108929,100466
108951,100458
108933,100477
108964,100436
108904,100465
108953,100445
108945,100481
108914,100463
108928,100466
108914,100470
108940,100452
108928,100477
108948,100454
108947,100449
108965,100451
108910,100458
108947,100482
108957,100480
108926,100444
108958,100435
108961,100459
108948,100454
108926,100445
108958,100449
108928,100456
108941,100456
108948,100446
108949,100448
108932,100470
108958,100457
108951,100433
108948,100458
108968,100460
108962,100452
108958,100470
108987,100454
108990,100477
109002,100479
108981,100464
108988,100466
108978,100444
108948,100459
108976,100461
108995,100464
108922,100438
108962,100440
108920,100406
108897,100398
108900,100410
108879,100382
108826,100379
108802,100352
108815,100375
108807,100322
108753,100336
108758,100319
108734,100320
108732,100325
108743,100320
108760,100339
108769,100332
108783,100321
108769,100338
108789,100347
108811,100339
108771,100332
108782,100357
108817,100379
108779,100339
108800,100370
108836,100353
108853,100356
108835,100376
108855,100374
108812,100355
108823,100394
108848,100395
108819,100361
108867,100387
108834,100383
108873,100391
108863,100378
108845,100367
108846,100401
108860,100381
108838,100378
108839,100398
108865,100400
108834,100358
108839,100371
108853,100389
108836,100352
108852,100385
108858,100396
108896,100406
108903,100389
108914,100410
108925,100423
108903,100403
108899,100411
108901,100424
108914,100443
108894,100413
108925,100410
108904,100421
108924,100421
108935,100438
108931,100401
108957,100428
108936,100444
108921,100429
108935,100440
108935,100438
108942,100439
108929,100441
108961,100430
108918,100402
108973,100448
108942,100432
108923,100458
108935,100444
108914,100410
108943,100447
108923,100444
108923,100444
108914,100442
108896,100418
108930,100438
108910,100397
108872,100401
108888,100409
108885,100414
108851,100392
108820,100383
108844,100376
108838,100375
108785,100374
108787,100339
108784,100337
108785,100349
108768,100328
108707,100319
108691,100274
108685,100307
108685,100276
108654,100267
108622,100252
108663,100267
108633,100252
108587,100235
108620,100264
108617,100233
108628,100220
108595,100251
108638,100253
108613,100233
108580,100235
108582,100199
108575,100213
108533,100208
108588,100203
108559,100177
108526,100181
108542,100212
108492,100188
108533,100189
108513,100181
108515,100178
108527,100173
108527,100159
108507,100176
108497,100157
108508,100186
108499,100168
108467,100172
108504,100155
108463,100145
108470,100129
108475,100130
108470,100148
108464,100138
108475,100140
108480,100124
108453,100144
108455,100166
108485,100122
108445,100147
108452,100152
108462,100143
108449,100150
108462,100173
108462,100120
108499,100150
108420,100150
108496,100151
108498,100140
108516,100163
108476,100141
108497,100177
108457,100161
108501,100166
108507,100178
108500,100158
108528,100155
108491,100152
108511,100155
108534,100155
108553,100174
108508,100176
108562,100197
108546,100173
108535,100184
108578,100183
108556,100170
108572,100214
108584,100210
108610,100196
108595,100196
108606,100235
108616,100224
108580,100238
108596,100223
108582,100233
108612,100226
108563,100215
108596,100217
108572,100166
108548,100218
108541,100198
108539,100187
108542,100194
108579,100188
108547,100175
108572,100202
108556,100189
108556,100183
108583,100187
108537,100185
108587,100196
108600,100196
108599,100215
108596,100201
108620,100233
108641,100206
108611,100244
108635,100228
108653,100265
108679,100278
108672,100230
108705,100253
108697,100258
108707,100298
108731,100284
108724,100297
108753,100286
108763,100289
108759,100311
108729,100298
108770,100295
108748,100296
108762,100300
108746,100249
108760,100298
108746,100277
108766,100303
108749,100289
108733,100276
108782,100312
108769,100274
108731,100309
108762,100288
108759,100297
108788,100299
108750,100307
108782,100309
108787,100314
108809,100311
108781,100326
108824,100323
108821,100307
108821,100335
108799,100307
108814,100328
108855,100323
108811,100346
108869,100327
108855,100290
108859,100345
108863,100330
108888,100350
108864,100359
108892,100367
108886,100340
108907,100361
108897,100350
108891,100347
108876,100356
108945,100360
108915,100366
108938,100358
108918,100369
108947,100356
108920,100360
108951,100392
108915,100372
108961,100354
108945,100370
108963,100364
108984,100348
108951,100370
108966,100386
108959,100382
108978,100368
108999,100371
108943,100389
108987,100395
108984,100395
108989,100393
108991,100397
108979,100403
108997,100381
109001,100382
109010,100377
108987,100381
108994,100399
108987,100396
108993,100396
108997,100401
108993,100392
108995,100388
108995,100394
108987,100371
108955,100363
108980,100379
108978,100382
108986,100373
108983,100373
109010,100386
109009,100384
109026,100375
109007,100388
108995,100387
109031,100389
109011,100370
109051,100384
109033,100378
109051,100396
108998,100387
109035,100416
109063,100398
109058,100394
109056,100391
109035,100396
109055,100399
109039,100394
109046,100403
109086,100387
109072,100387
109058,100418
109083,100431
109092,100414
109088,100394
109116,100423
109122,100408
109083,100406
109106,100428
109126,100431
109118,100426
109085,100412
109131,100410
109107,100409
109131,100415
109101,100437
109138,100454
109139,100433
109129,100411
109146,100447
109141,100429
109154,100429
109133,100445
109178,100434
109142,100443
109121,100407
109129,100426
109127,100434
109112,100419
109081,100392
109093,100404
109061,100373
109022,100385
109032,100378
108985,100360
109000,100333
108949,100354
108983,100324
108939,100344
108979,100364
108930,100334
108979,100357
108955,100340
108961,100318
109007,100358
108973,100370
108984,100350
108977,100342
108971,100349
109019,100357
109000,100363
109033,100376
109030,100369
109044,100373
109068,100381
109024,100354
109073,100391
109078,100377
109057,100372
109055,100368
109065,100367
109038,100371
109078,100385
109058,100379
109101,100393
109057,100362
109085,100393
109079,100368
109096,100391
109077,100397
109071,100378
109079,100384
109055,100386
109049,100372
109077,100360
109074,100367
109043,100372
109012,100367
109069,100379
109077,100345
109052,100366
109023,100355
109056,100364
109036,100362
109048,100350
109060,100370
109056,100387
109040,100362
109075,100399
109091,100353
109065,100397
109050,100348
109101,100380
109100,100382
109059,100361
109077,100359
109079,100373
109094,100360
109097,100355
109112,100386
109098,100387
109118,100376
109114,100395
109134,100393
109106,100371
109150,100382
109107,100383
109122,100399
109112,100402
109128,100381
109120,100372
109135,100388
109108,100361
109157,100385
109152,100391
109167,100388
109155,100378
109173,100376
109141,100367
109187,100403
109140,100392
109166,100405
109198,100384
109160,100412
109182,100388
109212,100375
109205,100407
109210,100407
109189,100411
109196,100395
109213,100391
109203,100410
109194,100409
109199,100412
109211,100389
109190,100376
109153,100349
109149,100379
109178,100355
109142,100382
109158,100370
109176,100371
109176,100364
109161,100345
109156,100371
109163,100370
109160,100378
109174,100361
109166,100344
109163,100354
109162,100342
109193,100391
109160,100366
109151,100357
109169,100351
109168,100368
109162,100358
109113,100356
109144,100383
109140,100364
109112,100360
109125,100349
109088,100352
109130,100361
109113,100332
109082,100325
109101,100332
109087,100316
109065,100322
109084,100328
109032,100308
109042,100291
109055,100313
109027,100294
109050,100293
109026,100296
109035,100281
109019,100321
109030,100267
109009,100284
109005,100273
109019,100272
108971,100267
108979,100259
108983,100278
108944,100262
108952,100272
108990,100239
108959,100257
108973,100259
108945,100270
108963,100278
108916,100243
108939,100275
108953,100254
108915,100260
