
0
0
0
0
0
0
0
0
0
0
0
0
0
0
0
0
0
0
0
0
0
0
0
0
0
0
0
0
0
0
0
0
0
0
0
0
0
0
0
0
0
0
0
0
0
0
0
0
0
0
0
0
0
0
0
0
0
0
0
0
0
0
0
0
0
0
0
0
0
0
0
0
0
0
0
0
0
0
0
0
0
0
0
0
0
0
0
0
0
0
0
0
0
0
0
0
0
0
0
0
0
0
0
0
0
0
0
0
0
0
0
0
0
0
0
0
0
0
0
0
0
0
0
0
0
0
0
0
0
0
0
0
0
0
0
0
0
0
0
0
0
0
0
0
0
0
0
0
0
0
0
0
0
0
0
0
0
0
0
0
0
0
0
0
0
0
0
0
0
0
0
0
0
0
0
0
0
0
0
0
0
0
0
0
0
0
0
0
0
0
0
0
0
0
0
0
0
0
0
0
0
0
0
0
0
0
0
0
0
0
0
0
0
0
0
0
0
0
0
0
0
0
0
0
0
0
0
0
0
0
0
0
0
0
0
0
0
0
0
0
0
0
0
0
0
0
0
0
0
0
0
0
0
0
0
0
0
0
0
0
0
0
0
0
0
0
0
0
0
0
0
0
0
0
0
0
0
0
0
0
0
0
0
0
0
0
0
0
0
0
0
0
0
0
0
0
0
0
0
0
0
0
0
0
0
0
0
0
0
0
0
0
0
0
0
0
0
0
0
0
0
0
0
0
0
0
0
0
0
0
0
0
0
0
0
0
0
0
0
0
0
0
0
0
0
0
0
0
0
0
0
0
0
0
0
0
0
0
0
0
0
0
0
0
0
0
0
0
0
0
0
0
0
0
0
0
0
0
0
0
0
0
0
0
0
0
0
0
0
0
0
0
0
0
0
0
0
0
0
0
0
0
0
0
0
0
0
0
0
0
0
0
0
0
0
0
0
0
0
0
0
0
0
0
0
0
0
0
0
0
0
0
0
0
0
0
0
0
0
0
0
0
0
0
0
0
0
0
0
0
0
0
0
0
0
0
0
0
0
0
0
0
0
0
0
0
0
0
0
0
0
0
0
0
0
0
0
0
0
0
0
0
0
0
0
0
0
0
0
0
0
0
0
0
0
0
0
0
0
0
0
0
0
0
0
0
0
0
0
0
0
0
0
0
0
0
0
0
0
0
0
0
0
0
0
0
0
0
0
0
0
0
0
0
0
0
0
0
0
0
0
0
0
0
0
0
0
0
0
0
0
0
0
0
0
0
0
0
0
0
0
0
0
0
0
0
0
0
0
0
0
0
0
0
0
0
0
0
0
0
0
0
0
0
0
0
0
0
0
0
0
0
0
0
0
0
0
0
0
0
0
0
0
0
0
0
0
0
0
0
0
0
0
0
0
0
0
0
0
0
0
0
0
0
0
0
0
0
0
0
0
0
0
0
0
0
0
0
0
0
0
0
0
0
0
0
0
0
0
0
0
0
0
0
0
0
0
0
0
0
0
0
0
0
0
0
0
0
0
0
0
0
0
0
0
0
0
0
0
0
0
0
0
0
0
0
0
0
0
0
0
0
0
0
0
0
0
0
0
0
0
0
0
0
0
0
0
0
0
0
0
0
0
0
0
0
0
0
0
0
0
0
0
0
0
0
0
0
0
0
0
0
0
0
0
0
0
0
0
0
0
0
0
0
0
0
0
0
0
0
0
0
0
0
0
0
0
0
0
0
0
0
0
0
0
0
0
0
0
0
0
0
0
0
0
0
0
0
0
0
0
0
0
0
0
0
0
0
0
0
0
0
0
0
0
0
0
0
0
0
0
0
0
0
0
0
0
0
0
0
0
0
0
0
0
0
0
0
0
0
0
0
0
0
0
0
0
0
0
0
0
0
0
0
0
0
0
0
0
0
0
0
0
0
0
0
0
0
0
0
0
0
0
0
0
0
0
0
0
0
0
0
0
0
0
0
0
0
0
0
0
0
0
0
0
0
0
0
0
0
0
0
0
0
0
0
0
0
0
0
0
0
0
0
0
0
0
0
0
0
0
0
0
0
0
0
0
0
0
0
0
0
0
0
0
0
0
0
0
0
0
0
0
0
0
0
0
0
0
0
0
0
0
0
0
0
0
0
0
0
0
0
0
0
0
0
0
0
0
0
0
0
0
0
0
0
0
0
0
0
0
0
0
0
0
0
0
0
0
0
0
0
0
0
0
0
0
0
0
0
0
0
0
0
0
0
0
0
0
0
0
0
0
0
0
0
0
0
0
0
0
0
0
0
0
0
0
0
0
0
0
0
0
0
0
0
0
0
0
0
0
0
0
0
0
0
0
0
0
0
0
0
0
0
0
0
0
0
0
0
0
0
0
0
0
0
0
0
0
0
0
0
0
0
0
0
0
0
0
0
0
0
0
0
0
0
0
0
0
0
0
0
0
0
0
0
0
0
0
0
0
0
0
0
0
0
0
0
0
0
0
0
0
0
0
0
0
0
0
0
0
0
0
0
0
0
0
0
0
0
0
0
0
0
0
0
0
0
0
0
0
0
0
0
0
0
0
0
0
0
0
0
0
0
0
0
0
0
0
0
0
0
0
0
0
0
0
0
0
0
0
0
0
0
0
0
0
0
0
0
0
0
0
0
0
0
0
0
0
0
0
0
0
0
0
0
0
0
0
0
0
0
0
0
0
0
0
0
0
0
0
0
0
0
0
0
0
0
0
0
0
0
0
0
0
0
0
0
0
0
0
0
0
0
0
0
0
0
0
0
0
0
0
0
0
0
0
0
0
0
0
0
0
0
0
0
0
0
0
0
0
0
0
0
0
0
0
0
0
0
0
0
0
0
0
0
0
0
0
0
0
0
0
0
0
0
0
0
0
0
0
0
0
0
0
0
0
0
0
0
0
0
0
0
0
0
0
0
0
0
0
0
0
0
0
0
0
0
0
0
0
0
0
0
0
0
0
0
0
0
0
0
0
0
0
0
0
0
0
0
0
0
0
0
0
0
0
0
0
0
0
0
0
0
0
0
0
0
0
0
0
0
0
0
0
0
0
0
0
0
0
0
0
0
0
0
0
0
0
0
0
0
0
0
0
0
0
0
0
0
0
0
0
0
0
0
0
0
0
0
0
0
0
0
0
0
0
0
0
0
0
0
0
0
0
0
0
0
0
0
0
0
0
0
0
0
0
0
0
0
0
0
0
0
0
0
0
0
0
0
0
0
0
0
0
0
0
0
0
0
0
0
0
0
0
0
0
0
0
0
0
0
0
0
0
0
0
0
0
0
0
0
0
0
0
0
0
0
0
0
0
0
0
0
0
0
0
0
0
0
0
0
0
0
0
0
0
0
0
0
0
0
0
0
0
0
0
0
0
0
0
0
0
0
0
0
0
0
0
0
0
0
0
0
0
0
0
0
0
0
0
0
0
0
0
0
0
0
0
0
0
0
0
0
0
0
0
0
0
0
0
0
0
0
0
0
0
0
0
0
0
0
0
0
0
0
0
0
0
0
0
0
0
0
0
0
0
0
0
0
0
0
0
0
0
0
0
0
0
0
0
0
0
0
0
0
0
0
0
0
0
0
0
0
0
0
0
0
0
0
0
0
0
0
0
0
0
0
0
0
0
0
0
0
0
0
0
0
0
0
0
0
0
0
0
0
0
0
0
0
0
0
0
0
0
0
0
0
0
0
0
0
0
0
0
0
0
0
0
0
0
0
0
0
0
0
0
0
0
0
0
0
0
0
0
0
0
0
0
0
0
0
0
0
0
0
0
0
0
0
0
0
0
0
0
0
0
0
0
0
0
0
0
0
0
0
0
0
0
0
0
0
0
0
0
0
0
0
0
0
0
0
0
0
0
0
0
0
0
0
0
0
0
0
0
0
0
0
0
0
0
0
0
0
0
0
0
0
0
0
0
0
0
0
0
0
0
0
0
0
0
0
0
0
0
0
0
0
0
0
0
0
0
0
0
0
0
0
0
0
0
0
0
0
0
0
0
0
0
0
0
0
0
0
0
0
0
0
0
0
0
0
0
0
0
0
0
0
0
0
0
0
0
0
0
0
0
0
0
0
0
0
0
0
0
0
0
0
0
0
0
0
0
0
0
0
0
0
0
0
0
0
0
0
0
0
0
0
0
0
0
0
0
0
0
0
0
0
0
0
0
0
0
0
0
0
0
0
0
0
0
0
0
0
0
0
0
0
0
0
0
0
0
0
0
0
0
0
0
0
0
0
0
0
0
0
0
0
0
0
0
0
0
0
0
0
0
0
0
0
0
0
0
0
0
0
0
0
0
0
0
0
0
0
0
0
0
0
0
0
0
0
0
0
0
0
0
0
0
0
0
0
0
0
0
0
0
0
0
0
0
0
0
0
0
0
0
0
0
0
0
0
0
0
0
0
0
0
0
0
0
0
0
0
0
0
0
0
0
0
0
0
0
0
0
0
0
0
0
0
0
0
0
0
0
0
0
0
0
0
0
0
0
0
0
0
0
0
0
0
0
0
0
0
0
0
0
0
0
0
0
0
0
0
0
0
0
0
0
0
0
0
0
0
0
0
0
0
0
0
0
0
0
0
0
0
0
0
0
0
0
0
0
0
0
0
0
0
0
0
0
0
0
0
0
0
0
0
0
0
0
0
0
0
0
0
0
0
0
0
0
0
0
0
0
0
0
0
0
0
0
0
0
0
0
0
0
0
0
0
0
0
0
0
0
0
0
0
0
0
0
0
0
0
0
0
0
0
0
0
0
0
0
0
0
0
0
0
0
0
0
0
0
0
0
0
0
0
0
0
0
0
0
0
0
0
0
0
0
0
0
0
0
0
0
0
0
0
0
0
0
0
0
0
0
0
0
0
0
0
0
0
0
0
0
0
0
0
0
0
0
0
0
0
0
0
0
0
0
0
0
0
0
0
0
0
0
0
0
0
0
0
0
0
-1
0
-1
0
-1
0
-1
0
-1
0
-16
-18
-20
-23
-27
-29
-36
-41
-46
-50
-56
-61
-68
-72
-78
-84
-91
-95
-101
-107
-114
-119
-124
-130
-137
-144
-149
-155
-160
-167
-174
-180
-184
-189
-196
-203
-208
-214
-217
-225
-232
-236
-242
-247
-255
-257
-264
-271
-276
-283
-286
-292
-298
-304
-310
-315
-319
-326
-332
-337
-340
-347
-352
-358
-363
-368
-374
-378
-384
-390
-395
-398
-405
-411
-415
-421
-427
-432
-436
-442
-447
-451
-457
-463
-465
-474
-477
-484
-488
-491
-498
-502
-508
-513
-518
-523
-528
-533
-537
-542
-547
-550
-557
-562
-565
-570
-575
-579
-584
-591
-593
-598
-603
-608
-612
-616
-621
-626
-630
-636
-639
-644
-647
-654
-658
-663
-667
-670
-677
-680
-683
-690
-694
-698
-703
-705
-710
-714
-719
-726
-729
-733
-737
-742
-746
-749
-754
-759
-764
-768
-771
-775
-779
-785
-789
-793
-798
-800
-804
-810
-814
-816
-821
-826
-829
-833
-839
-841
-846
-851
-851
-856
-861
-866
-870
-873
-879
-880
-883
-887
-892
-897
-901
-903
-909
-911
-915
-918
-922
-924
-928
-935
-936
-942
-945
-948
-953
-957
-958
-965
-969
-970
-974
-978
-982
-987
-989
-992
-995
-1001
-1003
-1007
-1010
-1012
-1016
-1020
-1024
-1026
-1031
-1032
-1038
-1040
-1044
-1048
-1050
-1053
-1058
-1061
-1064
-1066
-1071
-1073
-1077
-1082
-1082
-1086
-1089
-1094
-1096
-1100
-1103
-1106
-1110
-1111
-1115
-1118
-1122
-1124
-1129
-1131
-1134
-1139
-1140
-1142
-1147
-1151
-1151
-1155
-1157
-1161
-1164
-1167
-1171
-1174
-1176
-1179
-1182
-1184
-1189
-1191
-1194
-1197
-1200
-1203
-1204
-1208
-1211
-1215
-1217
-1219
-1222
-1226
-1228
-1228
-1233
-1236
-1238
-1242
-1244
-1248
-1251
-1253
-1258
-1260
-1261
-1262
-1266
-1272
-1272
-1276
-1278
-1280
-1283
-1286
-1287
-1289
-1292
-1296
-1297
-1302
-1303
-1305
-1306
-1310
-1314
-1318
-1319
-1320
-1323
-1324
-1329
-1330
-1333
-1335
-1338
-1340
-1343
-1348
-1346
-1350
-1353
-1355
-1358
-1359
-1361
-1363
-1365
-1369
-1371
-1372
-1376
-1377
-1379
-1382
-1383
-1387
-1389
-1391
-1394
-1394
-1399
-1400
-1403
-1404
-1408
-1409
-1410
-1413
-1415
-1417
-1418
-1422
-1424
-1426
-1428
-1431
-1433
-1432
-1438
-1439
-1439
-1445
-1444
-1446
-1448
-1451
-1452
-1455
-1456
-1460
-1460
-1463
-1465
-1466
-1470
-1471
-1473
-1474
-1477
-1479
-1481
-1482
-1484
-1485
-1488
-1490
-1491
-1497
-1497
-1498
-1500
-1502
-1504
-1506
-1507
-1509
-1512
-1512
-1515
-1517
-1518
-1520
-1521
-1525
-1524
-1527
-1530
-1529
-1532
-1533
-1536
-1537
-1538
-1541
-1543
-1546
-1548
-1547
-1548
-1551
-1554
-1554
-1556
-1557
-1559
-1561
-1562
-1563
-1565
-1567
-1569
-1571
-1572
-1575
-1574
-1577
-1578
-1580
-1582
-1583
-1585
-1585
-1587
-1590
-1590
-1592
-1594
-1595
-1597
-1598
-1600
-1601
-1601
-1604
-1605
-1606
-1609
-1611
-1611
-1612
-1614
-1614
-1615
-1617
-1618
-1619
-1621
-1623
-1624
-1625
-1626
-1628
-1631
-1632
-1631
-1633
-1634
-1634
-1635
-1639
-1641
-1642
-1642
-1645€
-1645
-1645
-1648
-1651
-1648
-1652
-1652
-1655
-1654
-1655
-1658
-1661
-1662
-1660
-1663
-1663
-1662
-1667
-1668
-1667
-1671
-1670
-1671
-1673
-1675
-1675
-1677
-1676
-1677
-1679
-1679
-1681
-1682
-1685
-1685
-1685
-1688
-1687
-1689
-1689
-1691
-1693
-1692
-1693
-1696
-1697
-1699
-1698
-1699
-1702
-1701
-1700
-1704
-1703
-1705
-1707
-1707
-1707
-1708
-1708
-1710
-1712
-1712
-1714
-1714
-1715
-1714
-1714
-1717
-1718
-1718
-1719
-1719
-1719
-1719
-1721
-1724
-1722
-1724
-1724
-1728
-1728
-1728
-1728
-1730
-1730
-1732
-1733
-1733
-1733
-1735
-1736
-1738
-1737
-1738
-1740
-1740
-1741
-1741
-1743
-1744
-1743
-1746
-1746
-1746
-1748
-1748
-1748
-1750
-1750
-1752
-1752
-1750
-1753
-1756
-1754
-1754
-1756
-1756
-1759
-1759
-1758
-1759
-1761
-1762
-1760
-1761
-1762
-1763
-1763
-1763
-1765
-1765
-1765
-1769
-1768
-1768
-1768
-1769
-1769
-1770
-1771
-1770
-1772
-1774
-1772
-1774
-1773
-1775
-1778
-1774
-1778
-1777
-1779
-1777
-1779
-1780
-1779
-1781
-1781
-1782
-1781
-1782
-1782
-1782
-1785
-1784
-1785
-1787
-1787
-1788
-1787
-1787
-1788
-1788
-1789
-1789
-1790
-1788
-1789
-1790
-1792
-1791
-1791
-1793
-1791
-1794
-1794
-1793
-1794
-1794
-1795€
-1796
-1795
-1795
-1796
-1795
-1797
-1797
-1796
-1798
-1797
-1799
-1800
-1799
-1800
-1800
-1799
-1800
-1801
-1801
-1801
-1801
-1803
-1800
-1801
-1802
-1801
-1801
-1803
-1804
-1803
-1804
-1803
-1804
-1804
-1805
-1805
-1805
-1806
-1806
-1804
-1805
-1806
-1806
-1807
-1809
-1808
-1808
-1807
-1807
-1807
-1808
-1808
-1808
-1810
-1810
-1809
-1811
-1811
-1809
-1812
-1811
-1810
-1810
-1810
-1811
-1811
-1811
-1812
-1812
-1812
-1812
-1812
-1812
-1813
-1811
-1813
-1813
-1812
-1812
-1811
-1813
-1813
-1814
-1813
-1812
-1813
-1812
-1815
-1815
-1813
-1813
-1814
-1815
-1812
-1813
-1814
-1813
-1814
-1814
-1814
-1815
-1814
-1815
-1813
-1814
-1813
-1815
-1815
-1814
-1815
-1815
-1812
-1813
-1816
-1815
-1814
-1815
-1813
-1813
-1814
-1814
-1816
-1813
-1814
-1814
-1813
-1813
-1814
-1814
-1813
-1813
-1814
-1814
-1814
-1813
-1814
-1814
-1814
-1812
-1813
-1812
-1811
-1813
-1813
-1813
-1813
-1813
-1814
-1813
-1812
-1814
-1813
-1813
-1812
-1812
-1811
-1811
-1811
-1812
-1811
-1811
-1812
-1812
-1811
-1811
-1812
-1811
-1810
-1812
-1809
-1809
-1810
-1810
-1809
-1810
-1810
-1810
-1811
-1808
-1809
-1809
-1809
-1809
-1809
-1809
-1807
-1807
-1808
-1806
-1808
-1806
-1807€
-1806
-1807
-1807
-1805
-1807
-1805
-1805
-1806
-1806
-1804
-1805
-1803
-1806
-1806
-1804
-1804
-1803
-1804
-1802
-1804
-1804
-1803
-1804
-1804
-1803
-1804
-1801
-1801
-1802
-1801
-1800
-1800
-1801
-1799
-1802
-1800
-1799
-1799
-1798
-1800
-1800
-1801
-1800
-1798
-1797
-1797
-1799
-1798
-1797
-1795
-1796
-1796
-1796
-1794
-1795
-1795
-1796
-1794
-1793
-1794
-1793
-1794
-1792
-1792
-1791
-1793
-1793
-1791
-1791
-1790
-1791
-1791
-1790
-1790
-1789
-1788
-1788
-1789
-1787
-1787
-1786
-1787
-1787
-1785
-1785
-1785
-1786
-1785
-1783
-1783
-1784
-1785
-1785
-1783
-1781
-1782
-1780
-1780
-1781
-1780
-1779
-1781
-1780
-1780
-1779
-1777
-1778
-1778
-1778
-1776
-1777
-1776
-1775
-1775
-1775
-1774
-1776
-1773
-1774
-1774
-1773
-1771
-1773
-1769
-1770
-1769
-1769
-1770
-1769
-1772
-1768
-1767
-1768
-1767
-1767
-1766
-1766
-1765
-1764
-1764
-1764
-1765
-1764
-1764
-1764
-1763
-1763
-1762
-1761
-1760
-1760
-1760
-1758
-1759
-1759
-1757
-1756
-1757
-1759
-1755
-1755
-1754
-1754
-1754
-1753
-1753
-1753
-1750
-1752
-1750
-1751
-1750
-1748
-1748
-1747
-1746
-1749
-1746
-1747
-1746
-1746
-1744
-1744
-1744
-1744
-1741
-1741
-1743
-1740
-1742
-1739
-1740€
-1738
-1738
-1739
-1736
-1737
-1737
-1736
-1734
-1734
-1733
-1734
-1734
-1731
-1734
-1731
-1731
-1731
-1729
-1730
-1729
-1728
-1729
-1727
-1728
-1727
-1725
-1726
-1724
-1725
-1726
-1724
-1724
-1723
-1721
-1721
-1723
-1718
-1720
-1720
-1717
-1719
-1718
-1717
-1715
-1717
-1717
-1713
-1714
-1713
-1714
-1712
-1711
-1713
-1710
-1709
-1710
-1708
-1708
-1709
-1706
-1706
-1705
-1706
-1705
-1703
-1703
-1703
-1704
-1701
-1701
-1700
-1703
-1699
-1699
-1699
-1700
-1697
-1696
-1696
-1695
-1694
-1694
-1693
-1693
-1692
-1692
-1693
-1692
-1691
-1690
-1688
-1688
-1688
-1688
-1686
-1686
-1684
-1686
-1682
-1683
-1684
-1683
-1681
-1679
-1681
-1680
-1678
-1679
-1677
-1676
-1676
-1675
-1673
-1673
-1675
-1672
-1673
-1670
-1671
-1670
-1669
-1668
-1667
-1668
-1667
-1664
-1665
-1663
-1664
-1663
-1663
-1662
-1661
-1661
-1661
-1660
-1658
-1659
-1657
-1657
-1657
-1656
-1656
-1655
-1653
-1653
-1652
-1652
-1653
-1651
-1649
-1648
-1651
-1649
-1647
-1647
-1647
-1645
-1646
-1645
-1644
-1643
-1643
-1641
-1639
-1641
-1640
-1639
-1639
-1638
-1639
-1638
-1636
-1636
-1634
-1633
-1633
-1632
-1632
-1631
-1629
-1630
-1629
-1630
-1628
-1627
-1625
-1626
-1625
-1624
-1622
-1623€
-1622
-1621
-1621
-1623
-1619
-1619
-1618
-1619
-1616
-1616
-1615
-1613
-1614
-1614
-1612
-1614
-1611
-1611
-1608
-1609
-1607
-1608
-1608
-1604
-1606
-1604
-1602
-1602
-1601
-1600
-1601
-1601
-1599
-1600
-1599
-1596
-1597
-1596
-1596
-1595
-1594
-1594
-1591
-1593
-1592
-1590
-1590
-1590
-1591
-1588
-1588
-1586
-1585
-1586
-1584
-1585
-1584
-1584
-1582
-1582
-1581
-1579
-1579
-1580
-1577
-1578
-1576
-1575
-1575
-1572
-1572
-1572
-1572
-1572
-1570
-1569
-1569
-1568
-1568
-1567
-1565
-1566
-1564
-1562
-1564
-1563
-1562
-1561
-1560
-1560
-1559
-1561
-1557
-1558
-1556
-1555
-1554
-1555
-1553
-1552
-1552
-1550
-1548
-1549
-1548
-1548
-1545
-1547
-1544
-1545
-1542
-1543
-1541
-1542
-1539
-1540
-1539
-1538
-1537
-1537
-1537
-1536
-1534
-1534
-1533
-1533
-1531
-1530
-1531
-1530
-1530
-1530
-1528
-1527
-1527
-1526
-1527
-1525
-1521
-1522
-1522
-1521
-1521
-1519
-1518
-1518
-1520
-1517
-1515
-1516
-1514
-1514
-1513
-1511
-1511
-1511
-1511
-1510
-1509
-1510
-1507
-1508
-1505
-1505
-1505
-1505
-1503
-1503
-1501
-1501
-1500
-1500
-1498
-1497
-1496
-1495
-1495
-1494
-1494
-1492
-1493
-1490
-1491
-1489
-1489
-1488
-1487
-1486
-1486
-1484
-1483
-1483€
-1483
-1482
-1480
-1481
-1480
-1479
-1479
-1477
-1477
-1475
-1475
-1474
-1473
-1473
-1472
-1469
-1471
-1470
-1468
-1468
-1467
-1468
-1466
-1464
-1465
-1463
-1464
-1462
-1461
-1460
-1460
-1460
-1458
-1459
-1457
-1458
-1455
-1455
-1454
-1455
-1454
-1453
-1451
-1450
-1449
-1449
-1449
-1450
-1447
-1445
-1447
-1444
-1442
-1443
-1442
-1441
-1440
-1440
-1439
-1439
-1438
-1437
-1437
-1435
-1435
-1433
-1434
-1431
-1431
-1431
-1429
-1430
-1427
-1427
-1426
-1427
-1423
-1423
-1423
-1422
-1422
-1422
-1419
-1420
-1420
-1418
-1416
-1416
-1415
-1416
-1414
-1412
-1412
-1411
-1411
-1409
-1409
-1408
-1408
-1406
-1406
-1404
-1404
-1405
-1403
-1403
-1400
-1401
-1400
-1398
-1396
-1395
-1398
-1395
-1395
-1393
-1393
-1392
-1393
-1391
-1390
-1388
-1388
-1388
-1386
-1385
-1388
-1384
-1383
-1385
-1383
-1382
-1381
-1379
-1378
-1378
-1377
-1378
-1377
-1375
-1374
-1375
-1373
-1371
-1371
-1370
-1370
-1370
-1368
-1370
-1366
-1364
-1364
-1367
-1364
-1364
-1363
-1362
-1361
-1360
-1360
-1358
-1357
-1357
-1357
-1356
-1353
-1354
-1352
-1353
-1352
-1349
-1351
-1348
-1350
-1349
-1347
-1345
-1345
-1345
-1345
-1344
-1341
-1340
-1339
-1340
-1339
-1337
-1338
-1337
-1337
-1336€
-1334
-1334
-1332
-1333
-1331
-1331
-1328
-1329
-1329
-1329
-1328
-1327
-1327
-1324
-1325
-1324
-1323
-1321
-1321
-1321
-1319
-1320
-1316
-1316
-1317
-1315
-1315
-1313
-1315
-1313
-1312
-1310
-1310
-1309
-1307
-1309
-1307
-1305
-1305
-1305
-1304
-1302
-1304
-1303
-1300
-1301
-1299
-1299
-1297
-1298
-1296
-1295
-1295
-1293
-1293
-1292
-1291
-1291
-1290
-1290
-1287
-1288
-1288
-1287
-1287
-1284
-1283
-1282
-1283
-1281
-1280
-1280
-1279
-1280
-1274
-1277
-1277
-1277
-1275
-1275
-1273
-1273
-1272
-1271
-1270
-1269
-1267
-1268
-1267
-1266
-1265
-1265
-1263
-1262
-1262
-1261
-1262
-1262
-1259
-1258
-1257
-1257
-1255
-1255
-1255
-1254
-1253
-1253
-1251
-1252
-1251
-1249
-1249
-1246
-1248
-1247
-1245
-1244
-1244
-1243
-1242
-1241
-1240
-1240
-1240
-1240
-1238
-1236
-1236
-1235
-1236
-1234
-1233
-1232
-1231
-1231
-1231
-1230
-1229
-1225
-1226
-1228
-1226
-1225
-1223
-1224
-1223
-1221
-1220
-1220
-1219
-1219
-1217
-1217
-1217
-1216
-1214
-1214
-1215
-1213
-1214
-1213
-1211
-1209
-1209
-1209
-1208
-1207
-1207
-1205
-1204
-1205
-1204
-1205
-1201
-1203
-1201
-1200
-1199
-1199
-1198
-1197
-1196
-1193
-1195
-1192
-1193
-1192
-1189
-1192
-1188
-1189€
-1188
-1188
-1186
-1186
-1186
-1184
-1185
-1181
-1183
-1183
-1181
-1179
-1179
-1179
-1179
-1177
-1175
-1177
-1175
-1175
-1175
-1172
-1172
-1172
-1171
-1169
-1170
-1169
-1168
-1165
-1166
-1164
-1164
-1163
-1163
-1162
-1161
-1159
-1159
-1159
-1157
-1158
-1157
-1157
-1153
-1155
-1154
-1153
-1151
-1151
-1151
-1149
-1149
-1148
-1147
-1147
-1146
-1147
-1145
-1145
-1144
-1143
-1141
-1140
-1141
-1139
-1140
-1137
-1138
-1136
-1136
-1136
-1134
-1134
-1133
-1132
-1131
-1131
-1130
-1129
-1129
-1128
-1125
-1127
-1128
-1126
-1125
-1123
-1123
-1122
-1121
-1122
-1120
-1119
-1120
-1118
-1116
-1116
-1115
-1115
-1113
-1113
-1114
-1112
-1109
-1113
-1110
-1108
-1109
-1107
-1106
-1106
-1106
-1105
-1103
-1101
-1101
-1100
-1101
-1099
-1098
-1098
-1097
-1097
-1096
-1094
-1094
-1093
-1093
-1091
-1092
-1091
-1089
-1090
-1089
-1088
-1087
-1086
-1086
-1085
-1083
-1082
-1084
-1081
-1082
-1081
-1080
-1080
-1078
-1079
-1077
-1077
-1075
-1075
-1074
-1074
-1073
-1073
-1071
-1071
-1069
-1069
-1069
-1068
-1067
-1066
-1066
-1065
-1064
-1064
-1064
-1063
-1062
-1060
-1061
-1060
-1060
-1058
-1059
-1057
-1056
-1058
-1056
-1055
-1055
-1055
-1052
-1054
-1052
-1050
-1049
-1049€
-1048
-1049
-1046
-1046
-1044
-1045
-1043
-1042
-1042
-1042
-1041
-1041
-1040
-1039
-1038
-1038
-1037
-1036
-1033
-1034
-1034
-1032
-1032
-1032
-1033
-1030
-1028
-1028
-1027
-1026
-1027
-1025
-1025
-1024
-1024
-1023
-1023
-1022
-1022
-1020
-1019
-1020
-1019
-1019
-1019
-1015
-1017
-1016
-1014
-1013
-1013
-1011
-1011
-1010
-1010
-1010
-1008
-1007
-1006
-1006
-1006
-1004
-1005
-1003
-1002
-1004
-1001
-1001
-1002
-1000
-1000
-997
-999
-997
-996
-995
-995
-996
-995
-995
-991
-991
-991
-990
-989
-990
-988
-988
-987
-987
-988
-985
-985
-984
-984
-983
-982
-981
-979
-981
-979
-978
-978
-978
-977
-974
-975
-975
-974
-972
-973
-972
-969
-971
-969
-968
-968
-967
-967
-965
-966
-965
-964
-963
-961
-962
-961
-962
-961
-959
-960
-957
-957
-958
-956
-955
-955
-955
-953
-952
-952
-952
-950
-949
-950
-948
-947
-946
-947
-947
-946
-945
-943
-944
-943
-942
-943
-939
-939
-938
-938
-939
-938
-936
-935
-936
-935
-935
-935
-933
-933
-931
-930
-929
-929
-929
-928
-927
-927
-928
-928
-924
-925
-923
-923
-923
-922
-922
-921
-919
-920
-919
-918
-917
-917
-916
-917
-915
-915
-915
-913
-911
-913
-912
-910
-910
-909
-908
-906
-907
-907
-905
-906
-905
-902
-903
-903
-902
-902
-902
-899
-898
-896
-897
-897
-896
-896
-896
-896
-893
-895
-893
-891
-891
-892
-891
-891
-890
-888
-888
-887
-886
-886
-884
-884
-885
-883
-882
-882
-882
-881
-880
-879
-879
-877
-877
-877
-877
-875
-876
-875
-874
-875
-874
-873
-873
-871
-869
-869
-868
-869
-869
-868
-866
-865
-865
-865
-865
-864
-862
-862
-861
-862
-860
-859
-860
-859
-858
-859
-858
-857
-857
-856
-857
-854
-856
-853
-852
-851
-851
-852
-850
-849
-848
-848
-846
-848
-845
-846
-846
-843
-844
-841
-843
-842
-841
-840
-840
-838
-838
-838
-836
-838
-837
-834
-834
-834
-833
-831
-832
-833
-832
-830
-830
-829
-828
-828
-829
-826
-824
-825
-825
-826
-825
-823
-822
-823
-821
-820
-820
-819
-821
-818
-819
-817
-815
-817
-815
-816
-814
-813
-814
-813
-810
-812
-813
-810
-811
-808
-809
-808
-808
-806
-807
-804
-805
-806
-804
-803
-803
-803
-801
-802
-800
-799
-799
-799
-799
-798
-797
-797
-796
-794
-794
-795
-793
-794
-793
-792
-793
-793
-791
-790
-790
-790
-788
-788
-787
-787
-784
-786
-785
-783
-784
-782
-781
-782
-781
-779
-779
-779
-779
-778
-776
-777
-777
-776
-775
-774
-773
-773
-772
-771
-772
-769
-771
-770
-769
-770
-768
-767
-767
-767
-766
-765
-766
-764
-765
-763
-764
-763
-763
-762
-760
-760
-759
-760
-759
-757
-756
-757
-756
-756
-755
-754
-753
-752
-754
-752
-751
-751
-750
-750
-749
-748
-750
-747
-746
-746
-745
-745
-744
-743
-743
-743
-742
-742
-742
-741
-739
-740
-739
-738
-737
-739
-737
-736
-737
-736
-734
-735
-733
-734
-732
-734
-730
-732
-731
-729
-730
-730
-729
-728
-728
-726
-726
-726
-725
-723
-723
-723
-723
-722
-722
-721
-722
-721
-720
-720
-719
-718
-717
-717
-717
-716
-716
-716
-715
-714
-714
-713
-713
-713
-711
-711
-711
-708
-710
-709
-708
-706
-706
-707
-705
-704
-704
-704
-704
-703
-702
-702
-702
-699
-700
-700
-699
-699
-698
-700
-698
-698
-698
-696
-696
-697
-694
-694
-695
-693
-691
-693
-693
-690
-691
-691
-689
-689
-689
-688
-686
-687
-689
-684
-688
-686
-686
-683
-682
-682
-681
-680
-681
-681
-681
-679
-678
-679
-677
-677
-677
-679
-675
-675
-675
-673
-673
-673
-674
-672
-672
-670
-671
-668
-670
-670
-670
-670
-670
-667
-666
-666
-665
-665
-665
-666
-664
-662
-664
-661
-661
-659
-662
-661
-660
-661
-658
-659
-659
-657
-655
-657
-657
-654
-655
-655
-655
-652
-655
-653
-651
-650
-650
-651
-651
-649
-649
-647
-647
-646
-648
-645
-646
-647
-646
-645
-644
-642
-643
-641
-643
-641
-641
-640
-639
-640
-640
-639
-638
-637
-637
-635
-635
-635
-635
-632
-633
-634
-632
-631
-632
-631
-630
-630
-630
-629
-629
-628
-628
-627
-628
-627
-626
-625
-624
-625
-623
-624
-623
-622
-621
-622
-621
-620
-621
-620
-619
-619
-615
-617
-617
-616
-617
-615
-615
-613
-614
-615
-613
-614
-612
-611
-611
-613
-610
-610
-611
-610
-609
-609
-610
-607
-607
-606
-605
-606
-604
-605
-605
-605
-605
-604
-604
-603
-603
-600
-602
-600
-601
-600
-600
-599
-598
-599
-597
-598
-595
-594
-594
-596
-596
-595
-594
-592
-592
-592
-591
-590
-592
-592
-588
-589
-589
-589
-587
-588
-586
-587
-584
-586
-586
-584
-583
-584
-583
-582
-583
-583
-581
-581
-580
-581
-580
-579
-580
-577
-577
-578
-577
-577
-576
-575
-576
-575
-574
-574
-572
-572
-572
-573
-573
-571
-571
-570
-569
-567
-569
-569
-568
-567
-568
-569
-567
-567
-566
-566
-564
-564
-564
-563
-563
-562
-563
-561
-562
-561
-561
-560
-560
-559
-559
-557
-559
-559
-557
-556
-555
-556
-556
-555
-554
-554
-554
-554
-553
-552
-552
-551
-551
-551
-550
-549
-549
-551
-548
-546
-549
-548
-547
-544
-545
-546
-545
-546
-544
-544
-543
-543
-543
-542
-542
-541
-540
-540
-541
-538
-538
-540
-539
-539
-539
-537
-536
-535
-535
-535
-535
-534
-533
-535
-533
-532
-533
-532
-532
-531
-531
-531
-529
-528
-529
-528
-529
-527
-528
-526
-526
-526
-526
-525
-525
-524
-526
-524
-524
-522
-521
-522
-521
-520
-520
-520
-519
-520
-518
-517
-519
-517
-517
-517
-518
-517
-514
-515
-515
-513
-514
-514
-512
-513
-514
-512
-512
-513
-510
-510
-510
-510
-509
-507
-508
-508
-508
-507
-508
-507
-506
-506
-506
-505
-505
-504
-504
-504
-503
-502
-501
-501
-501
-498
-500
-499
-500
-500
-497
-498
-497
-497
-497
-497
-496
-496
-495
-494
-494
-493
-495
-493
-494
-493
-492
-492
-493
-492
-492
-491
-491
-490
-489
-490
-488
-489
-487
-486
-488
-487
-486
-486
-485
-485
-484
-486
-484
-484
-485
-484
-483
-483
-482
-481
-482
-478
-480
-481
-479
-479
-479
-479
-478
-478
-477
-478
-478
-476
-476
-478
-476
-474
-475
-476
-474
-474
-474
-474
-472
-472
-472
-471
-470
-470
-469
-469
-469
-469
-469
-469
-467
-467
-467
-467
-465
-464
-465
-463
-464
-464
-464
-463
-461
-461
-461
-462
-460
-460
-460
-461
-459
-461
-460
-458
-458
-459
-457
-458
-458
-459
-457
-456
-457
-455
-456
-454
-455
-453
-454
-453
-454
-453
-452
-452
-452
-452
-450
-450
-450
-449
-448
-447
-447
-449
-446
-447
-446
-445
-446
-446
-444
-446
-444
-444
-442
-442
-444
-443
-444
-441
-442
-440
-441
-440
-440
-441
-439
-440
-438
-438
-438
-439
-437
-437
-436
-437
-434
-435
-435
-433
-434
-435
-434
-432
-432
-432
-431
-432
-434
-431
-430
-430
-430
-430
-430
-429
-429
-429
-429
-427
-428
-428
-426
-426
-427
-427
-426
-424
-425
-424
-425
-425
-423
-424
-423
-423
-423
-421
-421
-422
-420
-419
-420
-419
-418
-418
-419
-418
-417
-417
-417
-415
-417
-417
-415
-415
-415
-415
-413
-413
-415
-414
-414
-412
-414
-413
-414
-411
-411
-412
-412
-410
-411
-410
-409
-409
-409
-408
-409
-407
-409
-407
-406
-408
-406
-405
-405
-404
-403
-403
-404
-403
-403
-403
-402
-401
-401
-401
-400
-400
-399
-400
-398
-399
-398
-397
-396
-397
-397
-397
-396
-395
-394
-395
-395
-393
-396
-394
-392
-393
-394
-394
-393
-391
-391
-391
-390
-389
-391
-390
-388
-388
-388
-389
-387
-388
-388
-389
-387
-385
-386
-386
-386
-385
-386
-385
-384
-385
-383
-383
-383
-383
-382
-383
-382
-381
-382
-381
-379
-380
-379
-380
-379
-379
-379
-380
-378
-376
-377
-376
-377
-378
-377
-374
-376
-376
-376
-374
-375
-374
-371
-373
-372
-373
-372
-374
-372
-371
-372
-372
-372
-371
-369
-370
-371
-368
-369
-368
-369
-367
-366
-366
-368
-368
-366
-366
-367
-366
-367
-366
-366
-364
-363
-364
-363
-363
-362
-363
-362
-363
-363
-362
-361
-362
-361
-360
-360
-360
-358
-358
-359
-359
-359
-359
-356
-356
-358
-357
-356
-356
-356
-354
-355
-355
-354
-355
-353
-355
-354
-353
-354
-353
-353
-352
-351
-353
-350
-350
-351
-350
-351
-352
-351
-349
-349
-350
-350
-350
-346
-348
-349
-348
-348
-348
-346
-345
-346
-344
-344
-343
-344
-344
-343
-345
-342
-342
-342
-342
-345
-343
-343
-343
-340
-340
-341
-342
-341
-339
-340
-340
-340
-338
-338
-337
-338
-339
-338
-339
-338
-336
-336
-334
-335
-334
-334
-334
-335
-336
-336
-333
-334
-333
-332
-333
-332
-331
-331
-332
-330
-330
-330
-329
-330
-330
-329
-329
-329
-328
-327
-327
-327
-327
-329
-327
-327
-326
-326
-328
-325
-325
-324
-325
-326
-325
-323
-323
-323
-323
-322
-321
-322
-321
-322
-321
-322
-321
-321
-320
-319
-321
-321
-319
-319
-320
-319
-320
-319
-317
-318
-318
-318
-318
-318
-316
-317
-317
-315
-316
-316
-314
-314
-315
-315
-315
-312
-313
-313
-312
-311
-312
-312
-312
-313
-310
-313
-311
-310
-310
-308
-309
-309
-310
-309
-309
-308
-306
-306
-308
-307
-306
-306
-307
-307
-307
-306
-305
-305
-306
-306
-305
-306
-306
-304
-303
-305
-304
-304
-304
-303
-301
-302
-302
-300
-301
-300
-300
-300
-300
-299
-300
-299
-299
-299
-299
-298
-298
-299
-297
-296
-297
-299
-296
-296
-298
-297
-295
-294
-296
-295
-295
-296
-294
-296
-294
-294
-296
-294
-294
-293
-293
-293
-295
-293
-291
-291
-293
-291
-291
-290
-291
-291
-290
-290
-290
-289
-288
-289
-287
-289
-287
-288
-286
-289
-287
-286
-286
-286
-285
-287
-287
-287
-286
-286
-284
-284
-284
-285
-283
-283
-283
-281
-282
-283
-281
-281
-282
-280
-281
-282
-280
-282
-281
-278
-279
-278
-280
-278
-278
-278
-279
-277
-278
-277
-276
-277
-276
-277
-276
-276
-274
-275
-276
-276
-275
-274
-274
-272
-273
-273
-274
-272
-273
-273
-273
-273
-273
-271
-273
-270
-272
-272
-271
-270
-270
-271
-270
-269
-269
-269
-268
-267
-270
-268
-267
-266
-266
-267
-265
-266
-265
-265
-266
-264
-265
-265
-265
-264
-264
-265
-263
-264
-263
-263
-264
-264
-264
-263
-261
-264
-262
-260
-261
-261
-261
-261
-260
-259
-260
-260
-259
-260
-259
-260
-259
-259
-259
-258
-259
-258
-256
-257
-257
-255
-256
-257
-255
-255
-255
-255
-254
-254
-254
-255
-255
-254
-254
-253
-253
-252
-253
-253
-253
-254
-251
-250
-252
-251
-251
-253
-251
-252
-251
-250
-249
-251
-250
-250
-251
-249
-249
-248
-250
-250
-247
-248
-247
-247
-246
-248
-248
-246
-247
-247
-247
-245
-247
-246
-246
-246
-245
-243
-244
-244
-244
-244
-243
-244
-242
-244
-242
-243
-244
-243
-243
-241
-241
-241
-241
-242
-241
-240
-239
-240
-240
-240
-240
-240
-240
-241
-239
-237
-237
-237
-237
-237
-238
-237
-236
-237
-237
-236
-236
-235
-235
-237
-235
-235
-234
-233
-235
-235
-235
-234
-233
-233
-232
-233
-234
-234
-233
-233
-230
-235
-227
-240
-218
-250
-202
-281
-135
-658
-1344
-996
-916
-782
-870
-1013
-1076
-999
-1017
-1068
-1135
-1231
-1297
-1294
-1265
-1227
-1187
-1137
-1104
-1149
-1230
-1301
-1331
-1311
-1235
-1156
-1138
-1197
-1312
-1341
-1233
-1110
-1036
-1020
-1037
-1050
-1070
-1100
-1104
-1106
-1164
-1271
-1401
-1485
-1497
-1480
-1463
-1460
-1457
-1440
-1416
-1412
-1426
-1456
-1494
-1507
-1500
-1497
-1509
-1548
-1601
-1651
-1680
-1691
-1693
-1710
-1734
-1762
-1805
-1848
-1870
-1887
-1902
-1924
-1957
-1984
-2001
-2008
-2007
-2014
-2021
-2018
-2004
-1983
-1972
-1968
-1957
-1943
-1934
-1936
-1944
-1957
-1977
-1994
-1994
-1986
-1970
-1948
-1934
-1914
-1900
-1897
-1905
-1925
-1952
-1980
-2005
-2026
-2045
-2050
-2050
-2048
-2044
-2056
-2118
-2192
-2223
-2214
-2175
-2135
-2108
-2110
-2130
-2154
-2169
-2169
-2156
-2130
-2103
-2068
-2032
-2000
-1979
-1969
-1978
-2002
-2033
-2062
-2086
-2113
-2147
-2186
-2217
-2230
-2244
-2253
-2271
-2295
-2314
-2335
-2360
-2389
-2413
-2434
-2447
-2451
-2455
-2445
-2434
-2424
-2413
-2407
-2404
-2412
-2435
-2476
-2531
-2591
-2645
-2712
-2796
-2908
-3052
-3166
-3209
-3278
-3267
-3236
-3169
-3058
-3208
-3406
-3474
-3390
-3297
-3301
-3396
-3522
-3602
-3591
-3455
-3263
-3054
-2863
-2717
-2576
-2371
-2219
-2123
-2006
-1936
-1970
-2049
-2067
-2016
-1933
-1925
-1912
-1850
-1732
-1621
-1510
-1354
-1220
-1260
-1320
-1406
-1426
-1426
-1418
-1414
-1345
-1220
-1226
-1250
-1337
-1386
-1246
-1221
-1264
-1255
-1206
-1128
-1112
-1088
-1053
-984
-868
-698
-528
-354
-181
0
42
-27
12
70
82
66
64
79
142
179
219
230
256
304
319
336
336
313
350
409
406
379
394
440
490
503
465
433
444
471
450
347
257
229
230
223
166
94
52
54
64
72
84
83
95
122
162
207
248
289
318
327
322
304
265
203
121
31
-46
-117
-182
-259
-334
-378
-411
-428
-406
-378
-423
-536
-654
-729
-788
-876
-946
-999
-1020
-1017
-1006
-984
-948
-905
-866
-835
-819
-827
-839
-849
-856
-867
-894
-934
-973
-1004
-1016
-1007
-995
-978
-975
-981
-994
-1014
-1041
-1074
-1123
-1174
-1221
-1261
-1304
-1344
-1380
-1403
-1415
-1419
-1410
-1389
-1369
-1359
-1345
-1326
-1301
-1269
-1236
-1198
-1143
-1076
-1017
-964
-912
-854
-781
-700
-621
-562
-514
-470
-435
-401
-367
-334
-310
-286
-275
-247
-214
-188
-172
-182
-212
-258
-320
-397
-489
-585
-675
-756
-823
-878
-911
-932
-943
-946
-937
-915
-893
-889
-916
-965
-1026
-1089
-1172
-1275
-1391
-1495
-1588
-1664
-1725
-1785
-1831
-1861
-1883
-1908
-1942
-1978
-2009
-2046
-2081
-2109
-2121
-2115
-2098
-2068
-2006
-1941
-1871
-1796
-1720
-1646
-1584
-1547
-1526
-1512
-1503
-1490
-1473
-1453
-1420
-1363
-1300
-1231
-1170
-1104
-1042
-1000
-981
-986
-1003
-1020
-1044
-1086
-1139
-1190
-1238
-1275
-1300
-1317
-1327
-1322
-1297
-1272
-1253
-1240
-1222
-1205
-1199
-1199
-1201
-1207
-1211
-1202
-1165
-1101
-1044
-1000
-966
-931
-902
-904
-953
-1039
-1129
-1177
-1184
-1194
-1252
-1359
-1466
-1560
-1666
-1774
-1826
-1781
-1654
-1483
-1297
-1171
-1197
-1355
-1502
-1518
-1374
-1073
-727
-404
-145
56
233
383
495
599
718
834
897
831
633
374
51
-180
-223
-123
10
-11
-282
-715
-1093
-1245
-1169
-990
-801
-673
-596
-564
-539
-505
-431
-290
-112
33
122
101
-77
-358
-599
-675
-559
-445
-565
-882
-1185
-1284
-1158
-883
-579
-348
-199
-133
-105
-87
-76
-68
-109
-298
-633
-968
-1142
-1119
-913
-659
-492
-469
-631
-818
-879
-759
-475
-158
161
501
762
888
937
997
1067
1006
737
407
259
405
622
641
408
134
43
176
435
679
807
808
742
622
456
289
225
284
390
492
470
201
-201
-575
-775
-650
-280
146
462
531
437
293
96
-135
-345
-448
-397
-238
-61
96
122
-32
-299
-551
-626
-344
287
867
1160
1311
1403
1297
975
662
585
850
1389
1997
2474
2794
3001
3052
2888
2510
2136
2070
2276
2545
2627
2157
1069
-237
-1365
-2179
-2704
-3077
-3544
-4087
-4682
-5347
-5941
-6290
-6222
-5711
-4941
-4243
-3913
-3903
-3931
-3814
-3427
-2841
-2257
-1837
-1573
-1269
-803
-223
260
540
831
1251
1812
2391
2732
2752
2567
2387
2332
2389
2569
2841
3044
3115
3154
3234
3341
3396
3289
2931
2369
1824
1522
1524
1763
2025
2129
2052
1830
1571
1425
1469
1665
1869
1906
1750
1553
1416
1346
1346
1411
1514
1643
1758
1815
1804
1702
1531
1330
1103
842
582
374
257
214
178
83
-50
-167
-218
-215
-184
-150
-154
-191
-250
-293
-323
-363
-437
-535
-634
-725
-834
-980
-1132
-1269
-1375
-1454
-1531
-1598
-1643
-1660
-1653
-1640
-1618
-1578
-1528
-1474
-1412
-1328
-1220
-1112
-1010
-902
-793
-688
-601
-532
-475
-417
-367
-339
-324
-321
-305
-275
-241
-200
-165
-122
-73
-17
29
41
27
-1
-32
-59
-80
-86
-93
-123
-171
-208
-215
-195
-180
-187
-230
-304
-392
-457
-473
-430
-344
-247
-150
-67
-11
13
11
55
181
293
306
235
144
88
85
49
-92
-307
-505
-579
-525
-423
-355
-343
-373
-403
-423
-441
-482
-560
-671
-798
-904
-983
-1063
-1154
-1240
-1310
-1360
-1393
-1402
-1401
-1400
-1426
-1476
-1521
-1542
-1539
-1547
-1573
-1629
-1673
-1662
-1592
-1486
-1372
-1282
-1197
-1111
-1040
-994
-976
-926
-852
-774
-694
-630
-573
-504
-430
-358
-288
-204
-116
-41
21
69
124
193
264
320
363
393
413
434
464
514
569
623
681
741
797
836
870
880
874
865
860
858
853
851
854
867
878
886
902
918
933
924
901
888
883
872
859
836
806
800
805
819
839
856
881
915
953
989
1004
1008
1003
988
960
935
903
853
798
755
733
724
733
747
773
803
838
872
875
844
808
773
750
728
710
710
716
725
721
710
709
701
678
643
605
568
533
495
448
406
371
342
329
311
293
287
284
272
238
185
126
69
2
-75
-155
-235
-315
-385
-435
-474
-504
-518
-523
-529
-544
-558
-585
-617
-635
-640
-635
-622
-597
-556
-499
-437
-369
-295
-220
-144
-86
-45
-18
10
33
42
40
37
30
31
40
48
57
86
124
164
200
221
239
249
254
252
244
236
214
185
154
120
76
26
-34
-108
-189
-282
-395
-511
-603
-694
-786
-851
-883
-903
-918
-923
-903
-871
-846
-822
-796
-773
-767
-762
-750
-754
-765
-779
-795
-797
-796
-789
-781
-762
-740
-707
-666
-632
-602
-582
-558
-532
-506
-473
-435
-397
-357
-302
-253
-200
-146
-101
-61
-29
-2
7
5
-1
1
14
33
60
95
140
178
219
258
294
323
334
335
338
347
357
368
377
389
407
429
452
467
478
502
526
552
562
556
534
484
407
322
244
190
178
135
47
5
30
99
170
224
256
258
230
179
114
37
-33
-98
-155
-206
-240
-261
-272
-267
-252
-233
-223
-222
-219
-216
-214
-219
-236
-260
-290
-321
-353
-410
-494
-581
-654
-711
-766
-837
-909
-975
-1027
-1076
-1155
-1244
-1299
-1282
-1210
-1091
-970
-866
-767
-654
-515
-410
-345
-298
-233
-158
-67
39
147
273
404
529
643
761
881
996
1084
1130
1143
1119
1085
1045
907
726
661
700
769
832
855
861
893
960
1038
1080
1062
1017
952
883
840
867
955
1063
1135
1141
1102
1055
1062
1110
1166
1205
1218
1196
1155
1110
1061
1019
983
945
913
899
907
936
969
993
1008
1018
1026
1034
1037
1034
1007
965
920
895
914
949
964
956
957
976
1016
1051
1064
1060
1050
1029
1000
966
929
882
844
815
811
823
846
872
893
910
929
937
928
898
858
812
769
720
669
618
578
546
517
484
446
404
349
291
229
168
108
38
-34
-93
-145
-190
-217
-242
-271
-287
-307
-330
-357
-400
-447
-490
-537
-580
-624
-663
-696
-719
-721
-719
-722
-714
-711
-698
-686
-676
-665
-660
-660
-668
-663
-660
-645
-629
-624
-617
-620
-633
-655
-693
-746
-825
-923
-1021
-1097
-1162
-1225
-1283
-1338
-1372
-1384
-1377
-1356
-1320
-1270
-1206
-1139
-1076
-1015
-951
-889
-828
-766
-698
-629
-559
-482
-392
-307
-229
-153
-79
-6
59
110
152
184
206
233
266
303
346
401
464
526
592
654
704
744
769
780
789
794
791
779
758
734
719
704
696
695
686
689
701
712
707
683
649
607
551
488
426
365
313
275
259
257
265
288
315
348
381
416
438
448
449
448
457
465
478
487
506
533
559
591
623
650
647
613
584
553
501
431
366
299
230
170
121
84
41
11
6
10
1
-11
-20
-28
-34
-38
-31
-21
-13
-3
15
46
76
106
140
167
186
198
206
201
187
178
176
184
202
223
253
293
333
373
416
460
503
520
529
531
532
527
522
512
500
495
497
503
504
502
509
522
535
538
528
517
503
485
474
471
475
481
497
521
566
609
652
693
726
753
771
776
758
723
690
671
666
671
684
704
724
747
775
796
804
794
767
744
729
720
698
665
627
602
589
585
588
577
577
589
609
627
633
623
609
588
557
523
488
446
411
382
371
361
354
351
344
332
313
292
252
204
150
102
75
49
30
22
26
30
45
61
78
88
80
61
34
25
12
-14
-36
-46
-38
-27
-17
0
11
27
49
65
69
44
6
-39
-102
-168
-229
-296
-353
-397
-418
-416
-407
-386
-362
-338
-314
-291
-277
-271
-270
-278
-281
-278
-274
-273
-267
-261
-254
-241
-235
-228
-234
-256
-281
-307
-328
-342
-345
-365
-377
-376
-365
-344
-331
-306
-254
-184
-120
-63
-41
-30
-4
20
56
72
81
116
149
195
252
317
412
497
557
606
627
640
653
642
618
609
604
607
609
618
626
635
646
650
645
615
567
516
471
431
387
337
296
261
237
226
222
221
240
274
314
343
354
345
335
334
344
362
375
386
406
438
484
518
543
549
551
554
550
530
494
447
393
346
302
260
218
187
165
144
133
128
122
106
74
31
-5
-38
-75
-116
-158
-197
-226
-253
-279
-316
-357
-394
-429
-465
-515
-572
-630
-680
-726
-765
-788
-801
-796
-767
-711
-633
-543
-451
-355
-266
-183
-106
-46
2
46
87
130
175
215
258
304
348
387
425
460
497
523
538
549
561
574
581
587
591
600
608
619
626
622
625
641
658
662
653
638
625
611
591
576
565
560
564
576
600
623
651
683
711
733
748
752
745
730
711
694
686
682
685
702
728
755
781
804
822
823
801
767
730
694
652
605
562
526
498
484
483
484
492
518
555
586
607
617
622
627
625
618
613
605
596
596
613
635
655
676
687
688
672
646
607
553
490
424
360
295
223
164
123
83
39
-12
-54
-106
-170
-246
-326
-398
-462
-532
-603
-668
-724
-769
-801
-832
-860
-876
-877
-876
-879
-898
-918
-938
-962
-986
-1007
-1034
-1063
-1088
-1102
-1107
-1110
-1101
-1089
-1072
-1057
-1039
-1020
-1010
-996
-979
-954
-916
-869
-817
-753
-679
-598
-512
-412
-315
-223
-144
-66
17
96
173
234
293
357
421
488
561
624
689
759
834
900
948
973
999
1022
1032
1036
1034
1016
983
988
984
1040
1081
1079
1131
1123
1146
1182
1165
1172
1176
1143
1080
1026
968
927
896
843
783
710
648
609
576
532
485
441
400
361
326
292
270
254
244
245
246
263
284
309
321
314
297
267
228
181
134
100
48
-6
-55
-64
-71
-74
-89
-101
-110
-86
-75
-97
-124
-126
-106
-90
-69
-33
7
54
90
121
169
221
258
270
273
285
311
342
368
388
412
440
481
525
561
593
622
652
674
668
635
588
525
447
361
271
186
96
12
-49
-91
-123
-146
-160
-180
-200
-222
-252
-292
-343
-393
-418
-434
-447
-450
-445
-432
-420
-401
-376
-350
-338
-338
-347
-351
-349
-346
-344
-341
-324
-300
-265
-219
-178
-130
-70
-6
50
90
116
131
140
143
134
127
112
100
92
92
97
106
109
108
101
88
63
30
-13
-58
-104
-143
-182
-223
-251
-274
-300
-332
-367
-406
-445
-498
-554
-611
-648
-670
-690
-706
-715
-703
-678
-636
-589
-540
-479
-403
-317
-244
-205
-189
-187
-163
-119
-17
11
14
46
86
205
307
462
587
699
708
704
711
606
534
473
482
503
480
403
405
448
433
471
513
564
640
660
615
595
589
588
580
533
558
620
602
615
615
641
682
749
799
893
901
880
891
873
831
764
691
615
605
556
530
515
507
531
533
527
514
499
479
453
420
396
388
398
418
443
475
500
531
573
623
673
704
721
738
754
767
763
739
709
674
629
580
522
458
395
343
294
229
148
55
-38
-136
-241
-339
-436
-524
-601
-655
-677
-680
-665
-645
-626
-613
-608
-616
-638
-671
-714
-755
-790
-817
-831
-835
-822
-805
-778
-740
-704
-668
-651
-636
-617
-588
-556
-527
-505
-480
-449
-412
-364
-323
-277
-226
-166
-108
-61
-27
8
37
56
71
87
100
115
140
176
220
266
312
356
398
435
470
502
519
531
541
552
573
598
631
666
703
737
773
804
838
851
843
830
815
800
780
754
725
707
695
689
687
681
682
688
692
685
658
619
578
526
472
423
378
330
286
253
237
226
220
215
207
201
193
187
169
143
117
94
80
72
69
76
88
98
106
112
116
110
79
30
-29
-89
-150
-220
-296
-375
-440
-499
-546
-590
-628
-651
-662
-667
-689
-740
-794
-858
-926
-993
-1060
-1122
-1171
-1204
-1212
-1187
-1155
-1110
-1058
-1008
-963
-917
-885
-858
-835
-807
-772
-732
-692
-640
-580
-510
-439
-364
-296
-229
-175
-142
-128
-120
-116
-120
-147
-188
-240
-302
-371
-448
-526
-592
-627
-621
-584
-521
-427
-295
-123
87
329
601
889
1183
1477
1776
2061
2334
2583
2793
2959
3083
3159
3180
3139
3040
2880
2671
2435
2172
1885
1588
1294
1012
753
511
298
119
-19
-102
-129
-117
-94
-69
-24
48
122
219
332
425
504
581
650
682
642
551
431
297
155
4
-165
-344
-497
-608
-690
-757
-805
-845
-881
-931
-999
-1093
-1216
-1367
-1525
-1697
-1877
-2052
-2213
-2340
-2434
-2495
-2522
-2511
-2463
-2381
-2283
-2176
-2050
-1899
-1728
-1547
-1363
-1175
-971
-756
-529
-299
-65
176
421
677
919
1141
1359
1566
1759
1932
2093
2240
2374
2498
2613
2720
2808
2878
2925
2947
2936
2893
2817
2712
2586
2450
2313
2179
2045
1914
1796
1689
1594
1503
1423
1351
1282
1200
1113
1031
966
912
863
816
778
759
753
759
764
767
774
782
783
761
710
643
570
488
393
296
200
107
23
-46
-88
-124
-144
-158
-164
-167
-164
-156
-149
-131
-103
-61
-1
61
141
240
344
448
550
651
742
823
871
897
909
905
884
840
781
712
651
590
538
483
436
403
382
361
322
274
222
165
104
33
-28
-97
-156
-206
-241
-260
-275
-282
-285
-291
-298
-308
-320
-332
-347
-358
-355
-338
-318
-289
-248
-197
-148
-97
-43
16
66
88
97
106
116
118
116
107
109
121
142
174
205
243
295
351
399
428
438
441
443
437
424
416
404
399
397
406
420
442
459
469
468
449
419
373
312
253
189
138
94
63
51
53
70
85
105
126
148
155
144
119
90
65
34
-10
-59
-104
-143
-171
-196
-216
-227
-235
-246
-271
-314
-356
-395
-429
-464
-496
-523
-551
-566
-565
-543
-509
-468
-425
-379
-332
-293
-260
-236
-218
-195
-167
-130
-93
-51
-6
38
77
108
129
137
134
108
72
39
29
25
27
25
15
20
45
81
117
160
219
281
337
367
371
371
366
353
337
323
299
278
262
271
295
327
365
403
435
461
480
486
487
488
492
501
514
524
542
571
597
624
651
674
695
696
675
645
613
591
566
531
491
463
446
440
442
449
468
495
529
549
552
551
548
541
530
509
483
450
414
381
351
317
279
234
164
87
45
-40
-104
-188
-283
-356
-450
-506
-552
-596
-601
-628
-670
-707
-781
-856
-937
-1035
-1116
-1174
-1212
-1230
-1237
-1223
-1177
-1113
-1038
-953
-867
-775
-670
-562
-449
-328
-210
-104
-11
77
170
247
313
370
428
493
552
596
617
627
644
659
659
631
575
505
433
362
297
248
212
189
185
194
209
225
235
242
252
277
306
337
368
404
446
496
556
617
679
752
828
888
927
943
949
952
945
925
906
879
852
830
815
806
795
785
765
740
704
658
608
548
490
431
377
330
284
248
228
220
206
194
186
166
130
81
23
-38
-95
-155
-216
-269
-318
-358
-383
-399
-414
-420
-418
-419
-427
-449
-472
-492
-506
-516
-514
-502
-480
-444
-397
-337
-274
-205
-131
-65
-10
29
60
84
108
127
143
160
177
197
220
247
272
295
312
323
314
287
252
211
174
137
96
62
33
17
10
13
16
26
50
78
97
102
100
94
86
70
57
49
45
56
79
119
166
215
274
328
371
399
412
409
399
383
364
352
342
339
348
366
382
404
421
437
442
423
390
350
311
270
219
172
135
127
131
108
64
41
67
86
62
18
-17
-45
-87
-136
-179
-212
-243
-260
-264
-259
-245
-228
-202
-180
-162
-152
-144
-144
-153
-163
-176
-183
-187
-192
-201
-207
-219
-232
-243
-251
-263
-287
-325
-356
-383
-412
-447
-482
-505
-511
-509
-496
-479
-464
-434
-405
-377
-358
-352
-350
-349
-346
-341
-321
-300
-270
-238
-196
-140
-81
-15
56
117
175
223
264
294
324
348
378
418
462
511
563
606
644
680
710
734
737
723
697
674
654
634
603
582
561
552
555
564
577
597
624
648
663
666
661
653
630
601
569
532
488
446
407
371
328
283
236
179
110
37
-29
-104
-174
-230
-278
-309
-325
-337
-334
-328
-323
-307
-294
-282
-285
-305
-332
-359
-384
-416
-456
-490
-514
-529
-528
-516
-499
-469
-426
-389
-359
-344
-339
-339
-345
-363
-377
-390
-403
-412
-409
-394
-376
-357
-333
-310
-293
-284
-279
-286
-296
-307
-319
-320
-321
-319
-304
-286
-267
-239
-215
-191
-178
-188
-208
-229
-244
-260
-281
-300
-311
-307
-295
-272
-242
-206
-153
-99
-46
-8
21
44
60
73
84
95
109
124
144
179
225
274
327
374
404
423
435
431
422
419
424
453
500
576
672
788
905
1032
1166
1304
1443
1553
1615
1640
1647
1642
1647
1684
1799
1962
2107
2232
2275
2316
2405
2512
2540
2432
2141
1754
1257
653
45
-597
-1234
-1842
-2428
-2925
-3312
-3618
-3820
-3952
-4042
-4075
-4053
-3992
-3904
-3815
-3718
-3598
-3454
-3274
-3046
-2760
-2454
-2115
-1762
-1368
-963
-618
-238
134
526
876
1184
1470
1708
1913
2066
2223
2376
2494
2585
2647
2682
2681
2644
2571
2489
2404
2313
2232
2149
2074
2006
1954
1926
1907
1895
1876
1844
1809
1774
1733
1688
1631
1567
1503
1427
1357
1276
1185
1074
938
783
613
428
231
23
-182
-368
-541
-700
-850
-979
-1081
-1157
-1209
-1237
-1243
-1223
-1176
-1112
-1042
-977
-912
-840
-777
-717
-651
-581
-508
-434
-352
-267
-189
-109
-25
34
24
-22
13
109
200
253
252
224
205
198
207
229
243
254
261
255
235
184
110
30
-57
-144
-236
-317
-388
-442
-487
-514
-523
-521
-494
-462
-439
-417
-395
-383
-394
-414
-407
-388
-389
-404
-403
-374
-328
-291
-253
-208
-166
-130
-96
-75
-65
-59
-48
-35
-25
-16
-4
16
39
58
80
99
116
123
97
66
30
-6
-41
-77
-115
-145
-162
-167
-161
-152
-131
-102
-64
-36
-28
-35
-50
-73
-96
-117
-134
-149
-159
-162
-149
-130
-106
-74
-48
-24
-5
5
2
-11
-29
-47
-57
-63
-69
-74
-78
-86
-97
-105
-106
-115
-136
-168
-201
-226
-245
-267
-287
-306
-315
-322
-320
-310
-297
-275
-236
-195
-163
-145
-134
-118
-113
-115
-118
-115
-114
-122
-127
-132
-138
-148
-155
-149
-144
-137
-133
-127
-117
-96
-71
-33
14
61
119
187
255
315
372
431
479
504
519
528
546
557
562
568
574
588
609
638
667
699
745
792
835
865
884
910
931
940
942
945
946
944
941
941
946
948
945
937
917
884
839
785
718
648
582
519
459
408
362
323
292
257
227
196
166
127
70
1
-72
-171
-330
-516
-607
-571
-486
-405
-360
-347
-336
-304
-246
-184
-140
-112
-94
-81
-74
-70
-58
-14
9
17
36
5
78
132
151
212
280
330
367
355
309
280
249
218
209
199
175
117
52
2
-8
10
16
12
-9
-33
-53
-77
-90
-90
-83
-71
-28
13
47
83
124
170
214
250
253
235
204
164
122
73
18
-40
-90
-117
-138
-157
-174
-199
-228
-256
-283
-315
-343
-373
-397
-408
-411
-395
-357
-305
-245
-186
-118
-46
25
78
114
143
175
212
251
286
324
365
396
384
317
304
382
489
589
649
655
633
612
597
584
572
554
530
510
501
492
475
452
421
378
331
276
219
157
92
22
-46
-101
-160
-197
-225
-246
-270
-299
-354
-418
-437
-425
-412
-398
-395
-411
-444
-480
-481
-452
-396
-321
-249
-183
-115
-44
28
84
131
175
207
229
232
219
200
216
274
365
452
528
585
629
673
710
744
762
765
760
754
753
752
745
747
750
744
736
721
681
597
515
487
487
498
495
475
443
405
385
368
358
331
295
293
326
353
350
313
265
225
197
172
145
112
66
25
-11
-26
-34
-48
-68
-91
-121
-156
-189
-225
-265
-303
-337
-363
-384
-403
-414
-419
-429
-437
-445
-455
-471
-509
-563
-623
-683
-740
-801
-865
-927
-968
-997
-1003
-1000
-989
-966
-934
-900
-884
-886
-891
-898
-900
-906
-902
-890
-867
-822
-744
-659
-566
-469
-372
-280
-197
-127
-71
-25
15
56
101
150
197
248
302
363
421
478
524
562
584
588
584
579
583
589
591
590
594
607
626
644
662
668
633
570
562
635
730
806
833
812
768
736
706
696
690
691
686
680
677
672
656
635
609
572
525
485
447
418
388
359
350
347
342
339
338
338
334
315
285
254
226
210
193
172
160
158
160
184
209
241
289
343
397
439
471
503
531
546
560
574
581
594
607
635
671
704
740
770
789
791
785
770
736
696
655
613
576
538
510
496
486
484
491
500
506
499
478
450
428
407
376
340
292
244
194
142
91
33
-23
-82
-151
-228
-320
-421
-515
-602
-679
-742
-792
-829
-848
-851
-834
-816
-788
-755
-721
-694
-677
-664
-659
-645
-625
-597
-554
-509
-458
-395
-333
-270
-207
-146
-91
-56
-48
-53
-62
-70
-80
-94
-105
-116
-116
-106
-87
-66
-41
-7
29
53
61
55
38
5
-36
-81
-122
-162
-188
-206
-208
-212
-213
-213
-218
-231
-258
-291
-330
-376
-423
-465
-499
-525
-540
-536
-525
-515
-504
-494
-486
-475
-478
-494
-505
-510
-510
-507
-507
-500
-485
-459
-420
-380
-348
-307
-262
-227
-206
-203
-215
-237
-263
-293
-317
-341
-356
-357
-341
-311
-276
-233
-190
-157
-137
-122
-122
-133
-145
-153
-153
-141
-124
-96
-60
-32
-8
10
22
29
26
3
-31
-62
-84
-104
-122
-136
-143
-143
-135
-117
-104
-76
-43
-15
4
9
5
2
-13
-25
-31
-37
-38
-20
14
60
108
160
210
248
268
280
287
284
281
277
280
290
310
337
370
405
435
465
485
498
493
459
418
378
345
313
282
258
239
226
220
222
222
223
233
240
228
206
167
120
86
42
4
-28
-59
-77
-89
-93
-91
-92
-100
-117
-152
-200
-245
-295
-349
-395
-429
-442
-433
-411
-367
-310
-248
-176
-105
-37
30
74
105
132
165
197
225
253
282
310
336
362
383
391
403
411
400
376
343
303
260
217
177
150
122
106
99
97
91
83
102
149
202
226
206
152
91
40
-10
-56
-96
-128
-141
-132
-118
-113
-113
-113
-110
-122
-144
-167
-195
-236
-278
-306
-325
-351
-380
-391
-358
-283
-175
-63
35
115
180
240
306
358
408
469
535
605
685
764
850
934
1010
1069
1106
1120
1116
1104
1072
1030
987
955
938
930
929
942
953
956
962
964
957
935
895
842
786
726
656
580
498
421
351
288
226
165
109
60
8
-53
-137
-234
-334
-438
-544
-647
-746
-841
-924
-1000
-1057
-1109
-1157
-1201
-1250
-1300
-1353
-1402
-1448
-1485
-1506
-1512
-1497
-1466
-1421
-1358
-1281
-1202
-1123
-1053
-993
-941
-911
-888
-864
-840
-810
-778
-712
-615
-495
-370
-241
-114
15
151
276
364
413
430
434
427
408
391
371
345
321
307
297
308
329
355
381
397
403
404
388
363
340
317
324
364
416
472
538
594
639
684
716
739
741
710
685
665
639
617
590
548
507
470
441
424
408
404
406
419
426
416
399
375
345
315
285
261
245
245
257
284
315
346
373
389
390
382
362
330
296
262
233
217
205
194
196
195
191
193
197
204
208
197
174
161
161
164
174
179
192
214
247
295
331
367
414
468
516
550
564
571
574
573
568
565
558
548
535
531
535
526
513
500
480
451
424
396
359
330
307
283
268
259
255
262
269
274
278
284
288
284
262
231
206
185
166
141
115
92
76
77
93
106
127
148
166
175
169
147
126
99
63
28
-8
-48
-84
-114
-134
-148
-168
-181
-194
-208
-223
-243
-265
-299
-328
-353
-375
-381
-378
-357
-324
-293
-266
-246
-231
-224
-240
-274
-308
-329
-342
-351
-363
-376
-383
-381
-363
-342
-321
-292
-248
-204
-173
-149
-122
-95
-72
-47
-9
37
82
124
173
234
292
352
400
432
442
437
418
384
340
291
242
199
167
142
125
118
104
96
85
72
55
16
-30
-79
-125
-172
-225
-285
-351
-414
-473
-520
-575
-621
-668
-711
-759
-819
-890
-956
-1017
-1075
-1122
-1154
-1173
-1173
-1163
-1133
-1083
-1026
-968
-909
-852
-804
-763
-730
-703
-674
-647
-614
-573
-532
-477
-412
-352
-290
-228
-166
-104
-56
-26
0
32
70
103
130
151
179
216
264
319
366
416
467
513
545
555
544
533
522
510
496
484
467
451
442
439
461
519
558
561
551
543
543
534
498
460
432
414
392
371
353
340
325
298
275
253
229
191
142
92
56
30
7
-13
-34
-42
-44
-33
-17
5
30
63
92
107
99
83
69
54
38
33
36
40
46
57
77
98
120
139
151
161
161
157
138
114
95
79
77
73
66
70
73
73
69
62
54
43
12
-32
-83
-137
-190
-245
-306
-359
-398
-415
-414
-410
-401
-383
-352
-310
-273
-246
-222
-192
-154
-113
-68
-18
27
74
131
198
266
324
375
413
436
438
427
404
375
348
320
296
270
248
239
236
229
229
233
239
247
238
213
183
161
145
134
120
114
119
131
151
169
184
207
227
254
270
268
265
261
249
239
230
226
219
203
192
190
184
168
148
111
69
27
-18
-62
-103
-142
-175
-202
-223
-238
-235
-224
-214
-202
-189
-171
-152
-153
-159
-164
-155
-139
-123
-114
-104
-89
-70
-46
-22
-5
17
37
54
49
21
-10
-39
-69
-93
-110
-118
-120
-109
-80
-34
19
70
122
171
211
240
258
262
261
247
240
237
232
230
233
236
226
210
182
159
140
100
49
-11
-60
-104
-150
-203
-259
-309
-352
-386
-417
-445
-458
-466
-469
-486
-515
-543
-565
-589
-603
-615
-624
-632
-630
-611
-576
-539
-494
-443
-398
-345
-305
-265
-237
-216
-190
-153
-103
-47
12
84
160
227
298
361
422
471
493
497
492
491
482
467
446
425
415
412
417
429
447
472
504
531
543
529
504
478
438
396
349
310
270
234
207
197
195
201
215
230
242
256
266
277
285
291
293
299
302
313
332
355
371
389
412
436
452
447
422
397
379
364
349
332
325
327
337
352
366
379
403
430
455
465
455
441
423
399
368
336
307
271
234
206
187
171
149
125
92
47
2
-48
-102
-146
-187
-213
-219
-221
-206
-174
-137
-104
-62
-23
25
71
94
107
123
143
170
197
218
246
281
315
359
397
437
478
521
556
572
574
564
555
530
504
474
440
398
361
328
307
282
254
224
178
128
75
21
-32
-76
-124
-163
-193
-217
-232
-228
-221
-218
-205
-193
-170
-152
-153
-150
-139
-119
-89
-60
-36
-6
32
74
126
172
222
270
313
346
359
354
346
332
311
289
270
255
244
242
251
269
279
289
289
275
257
230
200
161
124
91
68
51
42
40
50
60
60
67
68
73
68
45
21
9
6
9
10
9
14
18
27
40
47
59
76
89
84
54
10
-40
-91
-143
-188
-227
-260
-292
-316
-322
-322
-326
-335
-355
-393
-438
-489
-551
-636
-741
-857
-961
-1041
-1097
-1135
-1161
-1187
-1200
-1191
-1166
-1126
-1097
-1078
-1060
-1032
-993
-949
-916
-888
-863
-844
-817
-788
-763
-735
-708
-692
-700
-728
-764
-805
-857
-908
-955
-996
-1033
-1061
-1078
-1068
-1049
-1022
-988
-958
-931
-906
-876
-846
-810
-763
-708
-641
-567
-486
-396
-308
-236
-164
-103
-53
-23
-33
-70
-119
-172
-227
-284
-343
-380
-379
-330
-228
-86
93
317
582
867
1166
1473
1794
2124
2453
2780
3088
3369
3606
3789
3928
4017
4035
3975
3828
3586
3269
2889
2467
2020
1583
1154
741
379
84
-144
-316
-445
-526
-557
-543
-493
-434
-387
-348
-306
-269
-231
-190
-157
-110
-61
2
96
191
269
324
394
487
589
672
724
725
675
589
477
337
178
13
-174
-371
-586
-811
-1034
-1267
-1501
-1710
-1878
-2007
-2089
-2134
-2143
-2132
-2105
-2063
-2017
-1997
-1999
-2023
-2027
-1991
-1931
-1854
-1766
-1677
-1580
-1464
-1331
-1184
-1017
-842
-648
-458
-266
-61
148
354
541
700
839
964
1064
1140
1193
1211
1199
1164
1097
1007
882
723
542
338
122
-100
-306
-503
-671
-802
-894
-937
-940
-897
-802
-659
-487
-288
-66
169
420
658
879
1090
1300
1506
1701
1876
2020
2142
2227
2279
2294
2268
2203
2109
1987
1844
1672
1479
1287
1093
911
733
565
418
279
150
30
-62
-129
-188
-243
-296
-352
-383
-391
-379
-360
-333
-294
-224
-124
-13
110
225
333
433
535
636
731
806
855
890
913
931
931
920
893
875
863
838
800
750
694
641
598
545
486
420
345
263
174
84
-15
-121
-230
-338
-442
-537
-631
-721
-803
-872
-929
-978
-1017
-1048
-1086
-1139
-1189
-1236
-1265
-1291
-1323
-1356
-1394
-1429
-1450
-1461
-1462
-1461
-1450
-1421
-1373
-1308
-1231
-1150
-1067
-983
-891
-786
-687
-596
-515
-440
-368
-292
-225
-177
-132
-94
-56
-27
-10
-3
-4
-3
-2
-11
-26
-51
-77
-100
-114
-117
-113
-102
-84
-62
-38
-13
20
65
120
177
233
286
344
400
459
518
571
632
697
766
835
891
940
987
1028
1065
1095
1117
1134
1140
1139
1128
1112
1090
1072
1057
1045
1027
1015
999
980
968
952
942
930
917
902
888
879
871
869
868
870
874
880
885
882
873
865
847
824
802
772
741
707
666
621
572
517
464
411
359
305
247
183
120
55
-8
-70
-142
-222
-302
-384
-455
-527
-604
-699
-805
-928
-1060
-1201
-1347
-1495
-1643
-1786
-1913
-2023
-2119
-2192
-2241
-2264
-2265
-2248
-2219
-2172
-2111
-2034
-1944
-1846
-1747
-1645
-1548
-1447
-1348
-1250
-1156
-1072
-991
-919
-852
-797
-749
-701
-645
-577
-503
-421
-338
-252
-160
-66
34
140
232
312
382
444
507
574
639
699
760
812
860
911
954
1000
1045
1084
1110
1127
1138
1149
1155
1158
1156
1147
1134
1114
1085
1051
1010
964
921
883
844
810
782
761
738
718
695
670
657
649
650
655
656
663
674
689
704
725
746
762
778
789
795
802
809
821
835
844
854
852
847
839
826
805
785
762
734
705
672
635
593
555
514
474
429
387
350
311
280
251
225
206
186
166
146
123
102
76
44
6
-33
-74
-115
-159
-206
-252
-302
-354
-407
-461
-514
-564
-614
-664
-713
-759
-803
-843
-877
-899
-911
-916
-919
-919
-924
-939
-962
-988
-1009
-1030
-1044
-1039
-1010
-969
-921
-871
-821
-765
-700
-636
-577
-524
-484
-455
-431
-409
-387
-363
-344
-321
-290
-245
-187
-129
-78
-36
8
63
122
171
214
249
275
307
337
368
396
418
432
433
424
405
388
365
331
279
212
133
51
-24
-86
-142
-190
-235
-292
-373
-443
-467
-434
-369
-296
-240
-203
-179
-197
-267
-347
-384
-349
-264
-145
-20
80
136
159
102
-158
-630
-1121
-1369
-1265
-948
-653
-470
-361
-251
-109
36
123
152
150
154
198
293
409
499
526
517
516
505
480
419
331
251
198
154
90
23
-19
-32
-64
-174
-364
-559
-671
-682
-633
-586
-580
-602
-628
-629
-608
-578
-559
-564
-596
-644
-697
-751
-800
-846
-889
-927
-960
-984
-994
-995
-985
-971
-951
-921
-891
-858
-821
-785
-743
-697
-648
-594
-539
-482
-422
-367
-311
-261
-215
-176
-142
-114
-98
-86
-88
-100
-118
-147
-180
-221
-266
-302
-341
-370
-397
-424
-450
-472
-487
-498
-510
-519
-529
-539
-547
-555
-560
-565
-569
-567
-556
-548
-535
-523
-527
-533
-537
-535
-525
-516
-500
-479
-468
-453
-433
-406
-366
-326
-287
-253
-218
-193
-165
-138
-118
-105
-85
-67
-51
-32
-13
5
25
43
64
87
102
125
149
168
193
218
242
266
283
298
307
306
302
291
279
267
248
234
223
209
199
191
181
169
159
155
150
151
155
159
165
174
192
209
226
239
256
268
278
291
301
305
315
321
329
337
336
338
334
331
327
319
305
287
266
245
224
204
179
150
116
78
43
6
-32
-73
-117
-162
-200
-229
-254
-267
-274
-269
-255
-240
-221
-202
-185
-158
-130
-104
-78
-54
-23
-2
24
55
86
124
163
196
233
263
284
315
334
359
381
405
436
460
475
497
513
530
546
566
585
614
646
683
724
761
800
841
880
919
956
987
1015
1035
1052
1063
1070
1072
1068
1067
1066
1064
1066
1072
1084
1100
1123
1149
1184
1232
1294
1356
1406
1435
1444
1443
1443
1442
1461
1521
1625
1746
1834
1844
1808
1768
1770
1822
1830
1688
1362
886
310
-326
-1011
-1736
-2474
-3188
-3835
-4383
-4824
-5162
-5413
-5575
-5639
-5606
-5504
-5345
-5165
-4964
-4739
-4490
-4210
-3911
-3603
-3281
-2951
-2611
-2266
-1921
-1564
-1198
-828
-458
-97
246
570
865
1133
1372
1577
1742
1870
1960
2018
2044
2040
2011
1961
1890
1818
1739
1649
1557
1466
1365
1266
1168
1079
1002
933
873
824
788
752
725
709
702
700
706
711
711
699
674
635
583
524
453
376
297
216
137
62
-12
-84
-145
-200
-246
-290
-331
-375
-412
-443
-471
-497
-522
-540
-552
-553
-546
-537
-523
-512
-507
-505
-500
-493
-481
-466
-451
-429
-405
-381
-361
-339
-318
-299
-277
-260
-250
-247
-249
-253
-257
-264
-271
-269
-265
-252
-234
-213
-192
-168
-145
-113
-81
-51
-27
-5
16
39
72
108
145
181
219
256
296
341
383
428
469
506
537
562
579
593
603
610
612
614
611
604
598
595
589
584
578
564
548
531
510
485
459
435
412
393
369
347
329
307
286
270
254
238
218
197
172
143
110
72
33
-17
-65
-123
-184
-243
-310
-374
-436
-496
-551
-605
-652
-696
-731
-758
-778
-794
-803
-800
-793
-779
-757
-733
-706
-677
-646
-614
-579
-541
-504
-471
-434
-393
-350
-300
-255
-210
-165
-129
-91
-52
-15
19
46
70
92
114
136
159
186
214
242
264
291
320
342
366
383
397
411
416
415
405
390
374
360
348
337
320
302
274
240
206
165
117
68
19
-29
-71
-114
-149
-178
-192
-201
-204
-202
-202
-202
-205
-210
-219
-228
-240
-250
-253
-250
-241
-221
-196
-168
-133
-91
-47
-1
40
80
118
163
198
224
245
258
271
287
295
298
307
313
328
349
370
388
408
421
432
440
445
446
442
437
433
427
419
409
395
382
370
349
324
298
263
231
192
145
104
63
28
-3
-30
-54
-72
-88
-103
-112
-122
-128
-132
-136
-136
-130
-123
-115
-108
-97
-80
-59
-41
-20
4
31
60
89
119
152
181
211
238
259
269
275
278
275
274
270
269
271
275
279
286
295
303
314
326
336
339
339
335
330
323
310
289
265
240
214
189
157
126
90
52
17
-24
-65
-103
-144
-183
-218
-256
-285
-312
-330
-339
-339
-335
-320
-304
-286
-260
-233
-210
-181
-152
-124
-89
-60
-38
-24
-17
-4
6
17
28
40
54
66
82
96
111
128
143
156
165
172
180
193
213
237
268
302
340
379
418
464
505
542
574
595
608
618
623
626
629
634
636
637
645
650
658
673
682
690
694
694
689
682
674
670
658
638
613
579
541
500
457
409
359
307
257
209
165
125
88
55
29
7
-9
-25
-41
-62
-83
-102
-117
-127
-132
-134
-135
-134
-137
-134
-133
-129
-119
-112
-107
-103
-101
-107
-117
-132
-149
-172
-197
-219
-239
-256
-269
-278
-282
-283
-284
-289
-297
-311
-325
-345
-372
-402
-430
-460
-483
-494
-501
-501
-500
-491
-474
-450
-420
-383
-347
-311
-276
-239
-204
-179
-157
-144
-143
-147
-155
-159
-163
-169
-176
-189
-201
-211
-219
-228
-240
-251
-262
-273
-282
-295
-305
-312
-321
-332
-350
-365
-378
-388
-394
-404
-409
-412
-411
-405
-400
-387
-373
-347
-312
-270
-219
-164
-101
-37
26
89
154
219
281
338
391
429
460
484
501
515
517
518
514
503
485
456
422
383
339
291
236
183
127
78
29
-22
-76
-127
-176
-220
-262
-297
-326
-352
-374
-388
-394
-390
-385
-373
-356
-339
-304
-268
-230
-188
-143
-98
-50
-5
35
75
109
145
174
199
221
237
250
262
268
280
292
298
307
313
318
322
332
334
331
324
314
310
303
293
285
279
272
264
257
247
233
218
200
175
147
119
89
53
19
-14
-53
-95
-131
-165
-190
-204
-215
-222
-222
-215
-200
-174
-147
-115
-80
-37
14
59
104
143
176
212
243
275
304
326
349
379
410
441
470
497
524
549
574
599
615
620
625
632
651
679
706
728
746
765
782
786
788
787
776
762
748
730
711
693
675
657
646
643
642
643
651
657
665
669
676
682
682
684
682
680
679
678
675
671
666
662
649
630
611
584
547
505
453
394
339
277
214
155
94
31
-31
-88
-144
-189
-231
-271
-302
-330
-361
-382
-399
-415
-424
-434
-440
-441
-441
-443
-443
-446
-448
-451
-456
-463
-469
-477
-489
-500
-509
-518
-525
-528
-533
-531
-533
-534
-533
-536
-535
-538
-543
-553
-565
-584
-604
-622
-638
-648
-656
-664
-670
-679
-686
-690
-697
-708
-722
-738
-750
-761
-770
-772
-770
-760
-742
-719
-697
-681
-667
-654
-643
-629
-616
-605
-596
-583
-564
-540
-509
-482
-448
-405
-358
-309
-263
-219
-176
-137
-103
-67
-31
8
48
88
129
165
194
222
243
260
271
280
286
290
295
298
298
298
296
291
284
274
262
248
228
206
181
159
138
123
110
101
97
91
82
83
87
96
107
117
129
143
152
163
171
181
202
226
251
277
303
326
339
347
352
351
341
325
303
273
239
203
157
105
60
14
-25
-62
-99
-124
-141
-145
-136
-123
-102
-75
-41
-10
21
55
85
118
152
181
212
237
255
274
290
311
324
332
335
341
352
372
398
426
449
473
501
536
570
602
630
656
675
690
702
708
715
719
726
732
739
738
737
730
720
707
695
679
658
640
615
586
555
524
499
471
440
409
379
347
324
306
283
259
224
186
146
105
60
16
-25
-67
-104
-135
-165
-194
-224
-249
-273
-295
-319
-346
-372
-399
-433
-463
-496
-522
-538
-546
-544
-533
-519
-496
-468
-439
-402
-365
-337
-316
-304
-290
-276
-262
-250
-239
-232
-223
-204
-181
-156
-134
-117
-102
-87
-76
-64
-54
-42
-38
-32
-24
-13
0
12
22
31
37
46
51
56
67
73
77
80
78
79
82
84
90
88
79
65
41
17
-7
-34
-64
-96
-126
-158
-195
-239
-290
-341
-392
-432
-468
-493
-513
-532
-541
-544
-541
-522
-510
-490
-468
-447
-427
-408
-391
-381
-369
-363
-363
-368
-384
-409
-448
-487
-528
-571
-615
-659
-699
-733
-765
-781
-791
-791
-781
-774
-773
-777
-770
-756
-736
-721
-702
-672
-629
-585
-548
-526
-487
-405
-291
-203
-169
-178
-195
-184
-144
-96
-46
29
143
259
362
442
503
559
623
693
760
813
854
884
907
933
957
976
1001
1022
1049
1073
1077
1055
1021
974
905
799
640
471
391
407
427
358
178
-48
-325
-742
-1179
-1570
-1941
-2194
-2228
-2003
-1570
-1078
-652
-316
-28
252
558
889
1196
1420
1566
1665
1725
1776
1831
1855
1853
1845
1831
1793
1714
1598
1473
1359
1231
1085
926
805
727
661
598
517
409
313
253
219
196
146
51
-40
-81
-79
-80
-101
-152
-213
-272
-320
-363
-429
-528
-661
-819
-983
-1147
-1312
-1478
-1637
-1785
-1917
-2019
-2082
-2118
-2137
-2147
-2151
-2135
-2089
-2016
-1922
-1809
-1683
-1544
-1395
-1243
-1079
-911
-746
-581
-418
-256
-94
62
214
350
471
578
676
770
853
925
987
1041
1080
1100
1109
1113
1104
1079
1049
1010
962
916
868
813
761
698
630
556
484
416
354
300
247
197
145
87
32
-30
-93
-157
-220
-277
-331
-384
-431
-472
-508
-538
-561
-583
-605
-628
-650
-673
-695
-712
-732
-747
-759
-763
-764
-757
-744
-729
-707
-681
-653
-619
-588
-558
-526
-496
-464
-435
-405
-370
-330
-282
-231
-180
-132
-86
-49
-15
16
46
74
102
117
130
138
142
142
128
107
81
47
14
-19
-53
-90
-126
-160
-192
-224
-248
-272
-296
-314
-325
-327
-325
-326
-341
-361
-376
-388
-388
-386
-382
-373
-362
-347
-328
-308
-282
-256
-226
-191
-152
-113
-68
-18
28
75
118
159
203
253
305
359
414
467
517
559
596
627
656
682
700
718
733
744
754
752
754
753
753
753
752
763
776
791
804
813
824
841
858
876
890
899
905
903
904
894
877
853
818
776
725
669
616
562
516
468
421
379
336
296
263
228
198
173
150
126
94
65
35
1
-33
-73
-112
-152
-183
-216
-242
-268
-296
-320
-346
-371
-399
-426
-450
-474
-492
-509
-524
-534
-545
-552
-563
-575
-583
-597
-609
-617
-624
-626
-620
-609
-594
-577
-552
-523
-487
-444
-399
-352
-308
-263
-222
-181
-143
-106
-79
-58
-41
-33
-35
-43
-62
-81
-92
-103
-109
-117
-121
-124
-127
-127
-134
-142
-145
-146
-150
-154
-159
-167
-177
-188
-202
-215
-224
-239
-254
-278
-301
-322
-342
-359
-373
-380
-385
-385
-387
-384
-385
-385
-384
-394
-404
-413
-413
-399
-382
-360
-328
-289
-243
-193
-148
-112
-75
-34
12
65
117
172
229
286
346
399
447
492
533
572
607
629
646
657
662
667
674
680
682
675
672
665
658
649
640
633
625
624
627
628
626
623
615
612
597
583
565
550
541
524
511
506
503
504
509
512
510
511
516
517
511
500
487
473
459
441
421
402
380
360
337
316
300
283
266
249
237
229
226
224
227
233
245
259
275
288
305
319
336
345
348
350
349
339
321
293
263
222
187
157
121
86
43
-5
-56
-109
-156
-205
-248
-289
-325
-356
-390
-422
-450
-479
-504
-533
-557
-582
-605
-628
-648
-667
-678
-685
-689
-691
-689
-687
-684
-674
-658
-639
-614
-582
-543
-497
-450
-398
-354
-314
-281
-251
-230
-216
-214
-221
-231
-235
-239
-243
-251
-263
-273
-283
-294
-309
-323
-335
-344
-352
-360
-365
-360
-353
-338
-319
-301
-281
-259
-232
-209
-182
-162
-142
-122
-107
-89
-63
-41
-19
0
16
34
55
78
90
107
116
125
136
140
146
149
151
152
144
136
123
102
80
57
40
25
10
-5
-13
-20
-29
-36
-45
-50
-53
-61
-67
-74
-79
-88
-98
-112
-129
-151
-175
-198
-220
-244
-268
-286
-301
-310
-318
-321
-313
-299
-286
-265
-244
-218
-184
-154
-124
-89
-57
-25
0
19
34
47
65
87
111
140
172
202
230
253
270
284
293
304
310
317
325
335
346
351
355
360
365
378
394
409
421
426
430
428
427
431
434
438
441
438
432
425
416
406
397
387
375
358
344
335
334
341
348
361
375
386
394
402
406
403
398
387
378
367
354
341
317
283
248
211
177
143
112
75
41
5
-29
-60
-88
-114
-141
-162
-182
-201
-216
-229
-237
-244
-247
-247
-247
-240
-230
-207
-176
-140
-106
-74
-37
-6
25
56
75
95
112
132
149
165
183
192
191
186
170
146
119
83
40
-13
-68
-129
-187
-255
-320
-383
-440
-492
-538
-575
-607
-629
-642
-648
-648
-647
-638
-627
-617
-606
-598
-595
-596
-595
-595
-596
-600
-604
-605
-605
-596
-583
-572
-557
-541
-526
-505
-480
-449
-420
-400
-381
-363
-342
-323
-301
-281
-255
-236
-218
-200
-194
-180
-167
-157
-157
-165
-181
-196
-214
-234
-245
-257
-258
-259
-263
-271
-282
-298
-321
-348
-384
-422
-453
-476
-491
-502
-506
-503
-504
-501
-495
-498
-506
-524
-550
-580
-618
-659
-709
-770
-836
-898
-948
-975
-971
-935
-856
-734
-566
-359
-120
142
414
690
955
1215
1453
1655
1825
1947
2038
2076
2072
2035
1946
1812
1657
1477
1276
1052
813
573
344
129
-55
-200
-312
-391
-438
-454
-430
-379
-289
-174
-44
99
249
392
525
650
763
851
909
936
937
925
901
851
772
667
548
427
312
211
121
23
-91
-206
-320
-429
-523
-628
-767
-935
-1105
-1257
-1383
-1478
-1546
-1594
-1622
-1618
-1579
-1502
-1396
-1274
-1167
-1062
-948
-859
-816
-798
-779
-745
-710
-680
-667
-649
-609
-545
-465
-371
-260
-125
46
247
461
687
923
1162
1401
1634
1849
2044
2214
2352
2463
2551
2608
2647
2663
2655
2610
2524
2400
2244
2061
1859
1638
1411
1187
964
759
576
416
291
200
143
126
138
174
234
306
387
476
566
652
725
791
833
855
863
845
806
746
671
585
490
394
288
177
65
-49
-158
-264
-366
-466
-557
-640
-711
-771
-823
-862
-893
-909
-910
-905
-889
-862
-825
-772
-711
-642
-573
-502
-434
-367
-306
-260
-220
-199
-193
-198
-218
-242
-274
-313
-354
-397
-444
-501
-562
-626
-692
-751
-808
-852
-890
-913
-927
-934
-926
-916
-891
-861
-820
-766
-708
-644
-579
-514
-450
-391
-335
-293
-248
-212
-179
-148
-125
-98
-73
-48
-14
28
76
131
189
250
316
385
449
514
564
602
630
654
683
718
766
819
867
910
943
972
1004
1034
1069
1112
1153
1193
1224
1248
1267
1280
1286
1289
1283
1272
1261
1247
1235
1225
1208
1186
1153
1109
1062
1012
965
918
868
824
783
750
714
671
629
581
532
483
431
381
331
278
238
197
162
134
102
69
38
9
-26
-59
-104
-153
-206
-275
-350
-432
-517
-615
-719
-829
-941
-1054
-1163
-1262
-1351
-1428
-1491
-1540
-1580
-1604
-1615
-1615
-1607
-1594
-1575
-1553
-1533
-1512
-1495
-1477
-1450
-1418
-1372
-1323
-1268
-1210
-1149
-1082
-1012
-933
-851
-770
-679
-590
-503
-419
-351
-288
-231
-176
-120
-62
0
64
126
190
252
313
372
428
480
535
589
649
707
758
805
850
894
936
965
990
1010
1023
1038
1055
1077
1098
1126
1157
1191
1228
1261
1294
1323
1346
1367
1388
1412
1434
1447
1450
1444
1431
1412
1394
1376
1351
1326
1311
1294
1279
1269
1257
1240
1224
1204
1179
1145
1107
1068
1026
977
928
874
821
774
727
678
632
573
514
455
388
319
242
159
71
-29
-132
-240
-356
-480
-607
-741
-864
-987
-1110
-1227
-1342
-1457
-1576
-1703
-1837
-1978
-2123
-2264
-2403
-2528
-2641
-2732
-2798
-2843
-2857
-2851
-2824
-2771
-2701
-2613
-2515
-2401
-2286
-2169
-2042
-1915
-1780
-1642
-1508
-1371
-1241
-1115
-984
-849
-714
-588
-464
-349
-244
-145
-51
44
140
232
328
418
502
588
667
749
830
907
982
1046
1102
1153
1204
1253
1303
1350
1392
1430
1460
1487
1517
1550
1582
1607
1629
1652
1673
1694
1710
1721
1730
1737
1720
1649
1577
1569
1640
1736
1780
1756
1692
1625
1571
1514
1449
1376
1310
1264
1235
1211
1176
1131
1083
1031
983
939
897
856
819
782
749
717
682
650
612
568
523
480
438
400
373
344
315
278
240
200
158
120
87
61
35
18
7
-3
-8
-1
14
36
71
102
119
119
103
87
58
49
47
30
7
-13
-34
-49
-59
-72
-79
-88
-92
-89
-73
-53
-37
-31
-34
-39
-52
-69
-88
-110
-128
-137
-140
-134
-134
-130
-118
-106
-100
-99
-108
-127
-148
-174
-211
-249
-289
-330
-377
-436
-515
-598
-663
-711
-757
-826
-922
-1018
-1094
-1140
-1161
-1178
-1204
-1222
-1233
-1248
-1277
-1318
-1361
-1382
-1379
-1368
-1360
-1339
-1309
-1302
-1301
-1271
-1195
-1132
-1166
-1279
-1389
-1449
-1474
-1530
-1638
-1786
-1953
-2116
-2264
-2391
-2488
-2560
-2624
-2681
-2727
-2770
-2803
-2834
-2859
-2883
-2927
-2978
-2988
-2946
-2885
-2851
-2847
-2848
-2868
-2950
-3137
-3318
-3336
-3192
-2998
-2906
-2985
-3095
-3055
-2798
-2375
-1918
-1550
-1329
-1201
-1040
-816
-579
-385
-260
-183
-109
-29
67
159
231
290
349
438
554
667
735
751
757
775
830
910
1005
1108
1220
1323
1425
1529
1639
1756
1869
1974
2058
2107
2139
2155
2167
2170
2151
2119
2063
1990
1904
1802
1692
1586
1478
1375
1274
1171
1068
973
878
786
705
635
585
549
525
514
504
497
492
490
489
489
484
481
480
479
476
476
473
469
472
467
462
459
451
444
435
426
415
403
391
385
378
374
370
355
342
325
309
289
265
235
197
149
101
40
-25
-92
-170
-251
-329
-404
-475
-543
-605
-659
-702
-733
-749
-748
-738
-719
-697
-669
-641
-614
-577
-543
-507
-465
-429
-386
-349
-312
-273
-237
-197
-155
-109
-63
-20
19
60
95
125
151
178
199
220
238
261
275
288
311
330
358
383
408
432
458
481
497
515
521
539
554
563
580
596
613
630
645
661
688
734
783
831
884
943
1012
1097
1191
1283
1367
1428
1463
1495
1535
1594
1700
1866
2051
2186
2248
2259
2261
2298
2360
2329
2098
1662
1104
505
-115
-783
-1499
-2231
-2924
-3520
-3993
-4360
-4637
-4843
-4982
-5040
-5030
-4956
-4836
-4680
-4506
-4327
-4120
-3892
-3639
-3367
-3080
-2783
-2481
-2172
-1862
-1549
-1247
-954
-675
-404
-147
104
343
568
775
968
1140
1292
1425
1536
1624
1685
1730
1761
1773
1761
1728
1684
1631
1574
1517
1452
1379
1297
1207
1112
1015
917
813
703
602
525
464
415
383
353
320
285
247
202
149
96
46
0
-38
-73
-109
-147
-194
-235
-261
-279
-280
-269
-254
-237
-210
-188
-164
-138
-113
-89
-64
-40
-23
-14
-7
11
37
79
119
161
197
234
275
318
353
382
404
408
401
377
339
284
213
127
29
-82
-204
-324
-444
-557
-659
-753
-829
-892
-943
-980
-1000
-1002
-992
-969
-943
-906
-862
-808
-749
-689
-630
-569
-503
-432
-358
-289
-221
-161
-106
-55
-5
43
93
144
188
226
262
297
331
359
387
417
444
466
485
496
505
513
517
520
524
527
534
540
546
549
550
545
541
530
518
507
494
487
481
478
480
488
497
508
516
520
521
519
508
487
457
416
372
326
276
231
183
138
95
55
16
-23
-54
-79
-102
-121
-138
-150
-157
-163
-165
-162
-155
-149
-145
-138
-132
-119
-104
-87
-72
-62
-58
-53
-48
-34
-16
3
26
50
63
72
71
64
55
53
55
62
71
80
77
67
50
25
-7
-36
-65
-92
-115
-136
-153
-169
-188
-212
-245
-281
-323
-365
-410
-451
-486
-513
-530
-539
-538
-527
-510
-486
-464
-438
-407
-375
-341
-306
-268
-231
-193
-155
-121
-83
-44
0
45
93
134
175
219
259
299
343
384
426
467
507
544
573
600
615
628
636
642
650
655
660
663
660
654
646
634
619
607
597
586
577
565
551
543
536
534
538
545
545
540
533
522
519
532
557
574
580
578
576
583
591
589
581
583
601
627
645
649
641
637
639
636
629
609
579
560
545
537
530
527
524
530
543
551
549
550
550
560
570
569
563
564
560
554
539
514
487
459
413
366
314
259
213
161
107
46
-8
-63
-124
-184
-251
-311
-378
-447
-519
-588
-655
-723
-797
-868
-925
-969
-1004
-1040
-1069
-1095
-1110
-1118
-1119
-1118
-1115
-1106
-1089
-1067
-1040
-1008
-972
-934
-905
-865
-823
-774
-729
-689
-647
-605
-559
-519
-482
-453
-429
-420
-419
-429
-449
-476
-506
-537
-573
-601
-627
-647
-662
-671
-672
-667
-659
-646
-639
-629
-622
-613
-598
-588
-576
-571
-565
-560
-552
-539
-523
-500
-476
-448
-417
-383
-347
-305
-271
-236
-198
-168
-132
-104
-75
-47
-26
-9
4
17
28
40
51
58
63
63
58
49
39
21
-3
-36
-74
-114
-155
-197
-238
-285
-336
-384
-431
-470
-507
-534
-552
-564
-567
-560
-546
-529
-499
-463
-420
-366
-307
-244
-174
-97
-12
73
162
252
335
420
501
572
641
697
745
784
815
840
861
879
892
906
910
914
913
906
896
881
860
834
804
763
721
675
623
574
517
460
404
354
311
276
238
207
175
144
119
92
68
47
27
17
15
13
13
21
34
53
74
101
136
179
213
247
278
303
330
341
346
341
326
311
298
281
263
245
222
198
172
146
121
102
83
68
48
32
19
3
-7
-16
-23
-32
-31
-24
-17
-2
21
49
87
129
175
221
262
303
331
357
376
391
404
419
426
434
434
426
414
399
379
358
342
321
307
295
272
247
219
191
157
124
94
67
39
15
-4
-17
-21
-25
-35
-43
-55
-75
-98
-129
-165
-204
-248
-286
-316
-341
-357
-373
-381
-382
-384
-390
-397
-406
-415
-418
-423
-426
-434
-440
-438
-426
-409
-388
-367
-342
-328
-318
-320
-329
-338
-351
-366
-380
-394
-408
-425
-441
-459
-480
-500
-527
-567
-671
-1076
-2769
-5550
-6978
-5936
-3579
-1406
-133
142
-168
-60
1854
5118
7321
7483
6349
4933
3934
3498
3352
3163
2821
2395
1949
1490
1027
614
282
-6
-301
-618
-943
-1275
-1591
-1874
-2124
-2340
-2533
-2698
-2836
-2929
-2965
-2929
-2827
-2663
-2444
-2193
-1917
-1625
-1321
-1019
-724
-454
-209
6
185
327
425
488
521
535
528
499
455
393
322
254
184
119
53
-4
-50
-84
-99
-103
-93
-70
-38
6
61
127
202
278
356
431
502
564
615
660
690
708
715
709
689
665
633
595
551
502
451
398
343
289
244
198
153
109
62
20
-23
-62
-98
-130
-159
-186
-208
-229
-240
-248
-255
-255
-260
-260
-254
-246
-232
-222
-204
-179
-150
-109
-68
-25
20
62
108
151
191
237
280
317
339
352
366
380
392
404
407
407
412
411
406
395
379
366
360
353
339
324
311
299
290
286
275
257
236
219
202
192
188
187
193
198
210
221
235
258
276
290
305
319
332
345
356
365
371
371
372
372
369
359
341
317
285
250
205
157
107
58
7
-40
-81
-123
-165
-212
-257
-307
-358
-405
-457
-508
-558
-606
-649
-690
-725
-755
-784
-810
-834
-854
-873
-889
-900
-906
-902
-888
-868
-841
-803
-761
-707
-644
-573
-503
-440
-383
-327
-277
-235
-205
-180
-166
-155
-150
-153
-158
-166
-182
-198
-214
-236
-256
-279
-302
-324
-344
-372
-402
-431
-462
-495
-531
-562
-591
-620
-644
-656
-663
-670
-670
-663
-646
-625
-600
-569
-531
-492
-455
-421
-390
-350
-310
-261
-213
-161
-114
-66
-15
39
96
154
210
269
320
369
414
452
490
521
544
566
587
606
622
634
644
647
653
656
659
657
649
643
635
632
634
638
643
651
657
663
665
662
651
640
627
609
591
569
549
533
518
509
507
511
513
517
525
533
542
546
543
533
521
498
471
437
407
375
349
321
293
266
234
206
168
124
72
23
-1
19
68
124
168
197
224
247
271
296
312
326
345
358
378
399
418
440
460
476
490
498
503
505
507
513
513
514
511
502
491
473
451
420
381
346
305
270
234
205
182
160
142
128
114
98
84
65
46
27
5
-12
-31
-52
-77
-101
-124
-149
-171
-192
-209
-220
-234
-255
-286
-316
-349
-382
-415
-446
-465
-476
-477
-471
-461
-448
-432
-415
-402
-389
-378
-367
-357
-358
-358
-356
-355
-352
-347
-340
-339
-338
-337
-336
-333
-332
-332
-331
-325
-317
-305
-292
-280
-271
-259
-240
-227
-206
-184
-159
-133
-107
-80
-57
-36
-22
-13
5
32
60
87
113
132
151
166
177
182
188
185
180
175
164
152
133
110
89
64
34
4
-36
-74
-111
-149
-187
-241
-301
-351
-386
-381
-378
-392
-411
-431
-452
-464
-474
-490
-505
-521
-535
-543
-556
-572
-581
-582
-573
-564
-558
-555
-561
-568
-570
-564
-560
-543
-529
-515
-494
-478
-462
-448
-427
-406
-378
-355
-333
-305
-278
-242
-210
-179
-147
-113
-83
-55
-32
-10
11
34
57
77
100
127
148
170
183
165
112
91
135
204
264
293
292
276
255
237
221
199
170
139
101
62
25
-15
-53
-93
-122
-144
-167
-184
-191
-198
-201
-202
-202
-195
-188
-169
-149
-121
-88
-51
-9
39
85
136
189
240
295
351
412
480
541
605
660
711
759
803
848
882
914
945
968
986
1002
1017
1033
1046
1052
1055
1056
1054
1046
1038
1017
982
929
866
829
821
825
824
806
779
745
710
671
632
599
568
539
506
470
433
404
385
375
370
365
364
369
373
382
389
388
385
382
371
356
341
321
299
268
228
197
200
225
256
280
289
289
289
287
289
292
285
274
263
248
234
217
199
183
163
140
113
83
55
23
-15
-50
-91
-131
-177
-224
-277
-331
-390
-450
-513
-576
-646
-721
-806
-898
-991
-1085
-1179
-1265
-1348
-1420
-1475
-1519
-1546
-1557
-1556
-1539
-1504
-1458
-1405
-1336
-1274
-1205
-1136
-1064
-985
-909
-827
-750
-676
-599
-526
-454
-384
-318
-255
-193
-135
-84
-29
15
58
104
147
187
221
253
276
297
310
317
318
314
306
292
273
249
225
202
179
159
138
124
110
99
88
74
62
46
28
13
0
-10
-13
-10
-4
6
14
21
30
35
40
33
27
17
7
-3
-14
-24
-29
-30
-28
-22
-11
4
25
52
81
107
130
151
167
179
184
179
170
148
119
86
48
10
-24
-60
-88
-112
-131
-146
-155
-166
-176
-188
-200
-205
-213
-221
-230
-236
-239
-235
-226
-214
-198
-186
-177
-167
-156
-149
-141
-131
-124
-116
-110
-106
-102
-99
-94
-90
-84
-78
-69
-56
-40
-24
-8
12
27
37
52
59
69
83
103
124
139
157
172
188
205
225
246
272
297
321
351
380
406
434
462
492
522
549
576
596
612
627
644
662
681
703
718
731
747
753
766
784
802
820
835
842
832
722
581
579
648
733
798
805
772
726
694
675
656
633
612
590
569
551
536
532
514
468
425
394
358
308
234
164
153
175
185
162
110
41
-30
-94
-154
-208
-264
-321
-379
-440
-497
-559
-622
-689
-752
-806
-850
-890
-919
-940
-952
-961
-964
-965
-963
-958
-948
-938
-929
-917
-906
-896
-882
-864
-846
-826
-797
-769
-739
-703
-661
-619
-569
-524
-477
-430
-392
-356
-330
-311
-294
-284
-279
-281
-287
-295
-302
-310
-322
-330
-342
-355
-364
-368
-367
-360
-355
-348
-331
-315
-295
-272
-245
-214
-179
-141
-98
-53
-5
44
100
154
205
259
313
367
421
470
508
540
558
570
568
560
534
496
445
389
329
274
226
181
147
125
105
93
85
77
73
77
84
98
120
140
163
189
216
249
285
323
363
401
432
462
489
514
540
568
595
622
644
664
675
685
691
694
690
686
676
660
641
613
577
545
508
467
418
364
309
252
193
132
74
13
-50
-107
-162
-214
-265
-316
-362
-406
-446
-485
-525
-562
-600
-634
-665
-696
-718
-738
-750
-758
-766
-774
-785
-789
-795
-796
-793
-789
-788
-792
-796
-799
-805
-806
-809
-811
-807
-810
-808
-803
-797
-785
-772
-758
-742
-715
-684
-650
-611
-569
-530
-488
-444
-397
-349
-300
-252
-210
-171
-135
-103
-76
-46
-21
0
20
36
55
78
100
118
134
153
171
194
217
239
262
284
307
334
360
382
394
399
405
405
406
394
375
347
306
263
211
154
83
11
-67
-130
-173
-178
-143
-67
48
192
356
533
719
915
1116
1323
1531
1747
1954
2145
2321
2459
2565
2621
2612
2542
2383
2063
1685
1422
1224
1005
731
396
55
-246
-482
-648
-766
-837
-876
-875
-838
-783
-712
-633
-553
-486
-442
-410
-393
-374
-349
-320
-290
-249
-211
-188
-180
-176
-181
-201
-235
-289
-358
-440
-531
-637
-769
-921
-1082
-1246
-1394
-1525
-1628
-1717
-1797
-1858
-1888
-1885
-1865
-1839
-1797
-1730
-1639
-1531
-1417
-1296
-1163
-1026
-898
-782
-679
-584
-491
-402
-318
-249
-191
-137
-85
-25
44
121
203
296
402
521
656
800
947
1094
1225
1342
1438
1503
1540
1546
1516
1454
1359
1237
1096
944
787
632
477
332
202
89
-10
-93
-160
-209
-239
-240
-222
-182
-125
-48
44
149
261
383
508
638
762
877
975
1059
1120
1161
1177
1164
1120
1049
959
843
710
556
389
217
41
-132
-298
-458
-605
-739
-859
-961
-1045
-1112
-1157
-1185
-1192
-1182
-1149
-1097
-1031
-945
-844
-728
-598
-456
-313
-168
-16
137
289
432
566
693
814
924
1023
1069
980
929
1044
1291
1625
1767
1655
1487
1321
1184
1119
1055
957
879
837
810
781
756
731
710
694
666
647
644
651
665
678
686
697
728
765
781
793
810
840
868
880
872
839
797
737
669
595
521
447
378
306
241
197
170
141
114
77
40
11
-20
-45
-70
-102
-137
-174
-212
-251
-295
-334
-355
-350
-318
-267
-219
-178
-153
-138
-108
-76
-47
-27
-28
-14
22
56
70
60
32
-1
-30
-54
-82
-116
-163
-211
-260
-304
-346
-387
-427
-464
-502
-544
-589
-638
-687
-735
-782
-823
-859
-891
-911
-922
-922
-913
-898
-880
-866
-853
-845
-841
-837
-839
-842
-844
-846
-843
-838
-836
-831
-831
-838
-847
-860
-865
-870
-866
-861
-851
-830
-806
-770
-730
-684
-623
-554
-480
-399
-316
-237
-156
-77
-3
69
130
182
228
264
294
319
333
341
342
332
313
286
253
215
177
138
104
76
46
17
-10
-37
-59
-79
-94
-102
-109
-108
-95
-75
-42
-3
43
88
137
183
231
274
314
353
392
427
459
492
521
547
567
584
603
617
626
631
632
621
605
584
558
526
493
453
409
363
317
274
231
189
154
116
80
42
2
-39
-79
-119
-152
-205
-262
-315
-361
-388
-413
-428
-424
-410
-397
-385
-375
-365
-354
-345
-331
-316
-307
-304
-310
-319
-327
-335
-340
-342
-334
-328
-328
-325
-323
-321
-313
-302
-292
-284
-277
-270
-259
-248
-243
-235
-234
-231
-230
-227
-228
-225
-219
-210
-198
-194
-192
-190
-196
-203
-205
-208
-212
-211
-209
-211
-203
-201
-200
-193
-188
-182
-176
-171
-161
-149
-142
-135
-123
-108
-83
-59
-33
-4
24
57
88
122
156
188
218
252
286
317
340
358
363
366
364
355
336
312
281
247
219
197
177
158
142
129
118
113
108
104
103
103
107
121
141
169
200
234
265
295
322
348
376
398
422
440
459
477
491
501
506
505
499
486
468
442
414
376
341
300
259
226
192
165
141
124
120
118
118
125
129
134
142
150
157
166
177
183
193
206
221
240
260
278
304
334
366
400
437
478
516
554
589
624
652
676
700
718
732
737
742
746
741
733
726
725
724
712
699
684
667
639
609
578
541
498
448
395
343
292
241
194
145
95
40
-16
-76
-139
-200
-257
-304
-357
-403
-448
-487
-527
-563
-597
-634
-666
-702
-737
-774
-813
-854
-894
-929
-965
-1000
-1032
-1061
-1083
-1099
-1109
-1110
-1109
-1106
-1102
-1100
-1096
-1088
-1081
-1065
-1048
-1030
-1009
-990
-973
-953
-934
-921
-908
-896
-891
-895
-894
-896
-896
-897
-897
-894
-890
-874
-853
-828
-796
-759
-717
-669
-620
-562
-506
-449
-389
-333
-279
-235
-197
-167
-138
-122
-113
-119
-129
-146
-163
-185
-205
-222
-234
-244
-248
-252
-257
-267
-281
-288
-298
-307
-306
-292
-272
-256
-237
-217
-194
-171
-144
-123
-121
-143
-171
-176
-123
-35
64
149
205
241
279
330
388
453
513
567
623
675
722
766
797
815
827
834
832
828
815
792
765
735
700
671
642
611
578
543
503
433
321
225
216
253
290
303
280
242
205
178
158
140
112
81
48
11
-20
-54
-93
-132
-171
-208
-237
-259
-274
-281
-285
-286
-282
-275
-259
-242
-221
-200
-178
-153
-130
-106
-83
-60
-41
-17
9
21
-8
-83
-104
-35
73
187
272
320
347
374
407
449
488
535
651
805
809
595
350
241
241
269
296
303
271
222
181
160
161
164
153
148
150
153
158
160
153
135
142
182
241
289
295
270
243
249
275
278
278
279
276
272
263
272
294
312
324
330
343
373
411
452
496
552
626
712
807
905
997
1092
1193
1301
1400
1465
1489
1478
1482
1525
1602
1707
1836
1944
1971
1933
1874
1854
1889
1948
1941
1778
1482
1071
558
-35
-692
-1396
-2110
-2771
-3349
-3845
-4228
-4457
-4547
-4539
-4448
-4298
-4115
-3915
-3711
-3507
-3303
-3095
-2874
-2641
-2393
-2126
-1840
-1539
-1230
-912
-597
-291
1
275
518
736
918
1063
1170
1244
1289
1297
1282
1244
1188
1121
1041
956
867
776
690
614
550
501
453
414
381
351
324
305
291
282
288
308
336
374
417
460
500
528
549
562
564
554
534
507
470
429
386
336
290
245
195
140
82
21
-40
-97
-153
-207
-250
-284
-306
-315
-318
-320
-329
-342
-363
-393
-434
-480
-524
-564
-597
-615
-628
-631
-625
-614
-594
-573
-543
-507
-465
-415
-366
-309
-251
-194
-131
-70
-6
60
128
189
243
286
325
355
378
387
382
363
336
304
266
224
174
127
75
31
-6
-43
-77
-102
-120
-131
-136
-138
-135
-129
-118
-98
-72
-38
-3
35
78
115
158
197
235
270
303
330
354
383
414
443
474
501
522
544
561
576
585
591
594
595
588
578
561
545
526
503
480
459
440
425
414
401
388
376
365
356
348
336
330
325
319
319
321
330
342
353
369
387
402
421
441
462
481
496
507
520
533
546
559
567
571
571
560
542
510
474
435
391
347
304
262
217
182
147
121
93
68
48
27
9
-15
-45
-82
-128
-174
-220
-271
-321
-365
-407
-438
-459
-474
-477
-475
-472
-470
-469
-470
-471
-471
-475
-478
-484
-495
-510
-527
-548
-570
-596
-622
-651
-686
-718
-751
-788
-820
-851
-881
-908
-927
-946
-959
-966
-970
-967
-959
-948
-930
-910
-884
-857
-825
-792
-759
-723
-688
-657
-634
-617
-605
-592
-579
-573
-570
-573
-578
-573
-580
-602
-623
-639
-662
-683
-703
-713
-717
-721
-732
-749
-764
-782
-789
-784
-781
-764
-743
-708
-664
-614
-558
-504
-445
-394
-344
-299
-258
-215
-175
-132
-95
-62
-30
0
31
61
89
117
138
160
179
188
190
181
158
122
76
24
-38
-100
-156
-204
-242
-277
-307
-329
-345
-352
-350
-345
-342
-331
-315
-293
-265
-233
-195
-149
-87
-7
79
167
252
329
399
464
520
566
603
626
635
637
627
609
584
553
519
484
446
411
380
353
331
310
289
272
256
240
227
215
203
186
171
155
140
125
113
101
87
78
77
78
88
99
112
129
148
165
183
210
236
265
294
322
357
394
432
476
518
561
605
650
695
734
773
806
838
865
894
917
941
958
974
986
997
1007
1014
1021
1024
1025
1020
1008
992
973
950
923
895
858
826
787
747
702
645
587
525
459
390
321
251
181
119
63
15
-23
-53
-70
-81
-89
-89
-85
-77
-68
-62
-57
-52
-53
-58
-68
-87
-104
-120
-137
-148
-155
-159
-150
-136
-118
-99
-80
-65
-48
-34
-22
-13
-5
3
8
12
16
17
18
18
19
24
29
36
40
39
38
38
37
36
16
-52
-163
-216
-185
-112
-39
4
8
-5
-16
-19
-14
-11
-24
-48
-72
-102
-128
-150
-180
-211
-239
-267
-289
-312
-334
-365
-394
-425
-458
-490
-525
-559
-596
-629
-667
-702
-725
-740
-753
-758
-761
-758
-754
-753
-750
-742
-732
-716
-699
-679
-655
-629
-605
-578
-551
-518
-483
-452
-420
-390
-364
-338
-317
-296
-274
-254
-234
-215
-201
-184
-167
-147
-124
-108
-90
-73
-57
-40
-27
-22
-17
-8
-4
0
3
-1
-2
3
9
16
27
37
53
68
81
91
100
110
121
132
137
141
140
135
130
127
119
111
100
91
89
86
87
91
92
95
95
91
85
79
73
65
52
34
17
1
-11
-21
-34
-42
-48
-56
-64
-75
-87
-102
-116
-130
-147
-167
-193
-225
-256
-290
-331
-372
-418
-463
-507
-548
-587
-628
-661
-685
-707
-719
-723
-721
-706
-682
-645
-594
-533
-460
-382
-300
-215
-131
-42
50
138
228
318
408
496
587
669
751
830
903
971
1027
1068
1097
1117
1131
1143
1148
1150
1144
1131
1117
1098
1069
1036
995
950
898
845
792
738
686
641
597
555
521
487
460
429
406
385
367
357
347
337
327
318
315
313
307
306
308
309
306
306
303
303
300
296
294
292
292
294
299
304
309
312
306
303
291
277
266
251
238
225
206
187
165
140
119
93
62
31
-2
-34
-61
-89
-115
-134
-156
-177
-190
-208
-227
-248
-266
-275
-279
-279
-282
-281
-282
-282
-284
-287
-287
-279
-270
-255
-245
-236
-227
-225
-226
-229
-239
-254
-273
-296
-320
-346
-365
-391
-410
-427
-441
-454
-464
-469
-477
-479
-474
-469
-464
-456
-445
-429
-415
-399
-385
-369
-354
-339
-325
-309
-288
-268
-242
-213
-183
-154
-119
-90
-67
-48
-34
-23
-17
-12
-3
3
12
24
47
77
108
141
174
200
224
246
260
265
261
252
239
218
196
178
157
140
116
89
67
48
29
12
1
-10
-15
-19
-19
-10
-8
2
11
18
29
39
45
49
52
57
57
55
53
58
63
68
73
68
66
64
60
56
54
58
62
69
74
78
76
73
64
55
51
41
37
35
40
50
63
77
90
105
116
123
126
120
107
86
56
23
-15
-60
-102
-149
-198
-241
-283
-324
-360
-393
-427
-451
-476
-492
-504
-508
-506
-491
-464
-430
-393
-349
-306
-265
-219
-177
-137
-92
-45
11
74
143
211
281
353
424
492
552
606
652
687
723
755
783
809
824
831
838
836
826
812
791
773
751
722
683
635
587
535
484
429
373
315
260
204
150
98
49
3
-33
-62
-86
-105
-121
-137
-150
-161
-168
-173
-176
-180
-189
-202
-220
-245
-273
-301
-332
-367
-403
-444
-490
-530
-569
-606
-638
-668
-686
-698
-696
-684
-662
-636
-612
-586
-559
-528
-496
-466
-434
-404
-373
-343
-314
-286
-256
-228
-198
-173
-134
-88
-52
-44
-58
-48
-10
21
16
-5
-1
33
50
45
35
33
36
33
19
6
-2
-9
-12
-19
-28
-31
-29
-27
-26
-26
-22
-15
-6
7
15
25
38
54
77
98
124
146
171
194
219
244
271
299
329
362
393
418
443
466
489
510
529
552
572
592
609
622
630
630
623
609
588
561
520
473
414
345
273
203
128
52
-23
-103
-185
-270
-358
-442
-526
-611
-692
-771
-848
-920
-986
-1051
-1105
-1155
-1196
-1227
-1246
-1252
-1243
-1218
-1177
-1124
-1060
-988
-909
-821
-727
-630
-531
-432
-338
-247
-161
-81
-8
63
133
195
254
309
359
406
453
495
531
565
593
614
630
637
642
639
631
614
590
561
526
494
462
423
386
343
300
262
224
192
159
131
114
96
88
87
88
97
109
123
141
158
176
196
219
247
276
307
337
372
413
455
494
532
568
599
634
665
698
724
748
771
790
808
825
842
851
859
859
854
846
836
820
798
768
741
699
649
595
532
467
395
311
223
130
31
-71
-174
-276
-379
-480
-576
-663
-739
-806
-862
-909
-951
-978
-1000
-1014
-1018
-1014
-1007
-1003
-985
-959
-941
-929
-909
-872
-821
-778
-734
-679
-622
-560
-498
-434
-367
-308
-249
-183
-122
-68
-20
25
67
109
148
186
223
254
287
319
349
376
400
422
442
463
486
506
525
545
563
579
593
609
628
645
662
680
699
716
727
735
738
739
739
739
736
736
730
725
715
704
696
686
676
666
657
650
642
631
618
603
589
572
553
530
508
484
462
441
419
396
366
337
304
268
233
194
154
108
57
4
-56
-121
-190
-265
-348
-441
-542
-647
-768
-895
-1025
-1159
-1293
-1429
-1570
-1713
-1856
-1991
-2119
-2239
-2351
-2446
-2528
-2599
-2648
-2684
-2698
-2696
-2677
-2644
-2592
-2522
-2443
-2354
-2253
-2144
-2025
-1895
-1759
-1621
-1482
-1341
-1196
-1050
-902
-754
-609
-465
-320
-178
-31
115
262
402
537
664
781
884
977
1052
1114
1168
1205
1232
1249
1257
1259
1258
1256
1249
1242
1237
1234
1230
1230
1225
1220
1208
1195
1178
1162
1145
1126
1106
1078
1050
1020
988
961
934
911
891
873
857
846
839
838
837
841
843
854
865
882
895
908
922
937
949
963
978
988
1003
1021
1042
1059
1073
1087
1094
1097
1106
1112
1115
1112
1099
1083
1067
1047
1022
1000
977
951
920
890
852
808
763
706
639
566
477
380
267
145
16
-117
-262
-416
-590
-777
-981
-1203
-1443
-1702
-1973
-2250
-2526
-2796
-3051
-3285
-3494
-3676
-3830
-3955
-4053
-4126
-4170
-4189
-4180
-4142
-4081
-3992
-3882
-3756
-3616
-3466
-3309
-3142
-2964
-2781
-2593
-2398
-2197
-1990
-1776
-1556
-1337
-1110
-888
-666
-451
-240
-37
153
338
512
671
823
960
1087
1205
1312
1415
1507
1591
1667
1730
1785
1830
1863
1892
1909
1917
1919
1913
1906
1897
1882
1860
1836
1811
1788
1766
1742
1718
1694
1674
1655
1641
1634
1626
1621
1621
1618
1620
1624
1627
1627
1625
1624
1624
1616
1611
1602
1590
1582
1580
1576
1573
1564
1553
1540
1525
1499
1467
1427
1389
1356
1317
1276
1233
1186
1139
1087
1035
975
911
839
763
678
587
489
380
265
141
12
-119
-260
-405
-553
-702
-848
-988
-1127
-1259
-1390
-1514
-1637
-1756
-1868
-1976
-2077
-2169
-2253
-2321
-2376
-2414
-2440
-2456
-2461
-2454
-2432
-2395
-2354
-2302
-2239
-2170
-2090
-2003
-1910
-1805
-1699
-1585
-1468
-1353
-1237
-1118
-1004
-886
-771
-655
-537
-422
-304
-185
-67
44
151
247
336
415
487
553
611
661
705
743
778
808
835
863
890
913
939
966
993
1018
1039
1059
1079
1095
1113
1133
1157
1182
1215
1246
1278
1308
1335
1365
1396
1422
1449
1470
1490
1508
1525
1544
1561
1576
1590
1602
1614
1620
1621
1623
1617
1610
1598
1584
1567
1547
1524
1498
1472
1438
1400
1365
1324
1282
1238
1191
1139
1081
1023
959
891
818
734
645
549
445
331
208
72
-78
-234
-397
-567
-734
-907
-1086
-1268
-1451
-1639
-1826
-2011
-2197
-2377
-2556
-2719
-2863
-2995
-3109
-3209
-3288
-3345
-3377
-3385
-3368
-3330
-3267
-3178
-3070
-2939
-2799
-2643
-2472
-2291
-2100
-1908
-1717
-1527
-1345
-1165
-993
-832
-679
-530
-390
-254
-127
-11
95
191
285
374
456
529
595
646
692
734
775
818
860
893
920
940
955
970
986
995
1006
1018
1027
1040
1050
1058
1073
1082
1090
1100
1119
1145
1171
1191
1210
1230
1251
1272
1290
1306
1321
1330
1332
1325
1314
1297
1280
1259
1232
1202
1164
1123
1077
1025
973
919
860
800
738
681
621
562
493
427
356
281
207
132
56
-13
-85
-155
-228
-299
-367
-435
-499
-560
-627
-697
-766
-833
-903
-973
-1043
-1119
-1193
-1270
-1346
-1425
-1509
-1602
-1697
-1797
-1903
-2008
-2118
-2230
-2336
-2439
-2532
-2609
-2678
-2730
-2766
-2788
-2796
-2785
-2765
-2733
-2691
-2637
-2575
-2503
-2427
-2347
-2254
-2159
-2054
-1934
-1809
-1680
-1541
-1398
-1253
-1103
-956
-814
-673
-535
-401
-271
-147
-39
54
144
251
331
325
264
312
502
732
927
1049
1108
1152
1217
1299
1383
1448
1482
1486
1499
1532
1590
1665
1738
1794
1837
1874
1899
1926
1955
1975
2044
2150
2209
2270
2222
2043
1913
1876
1886
1783
1608
1536
1485
1383
1314
1232
1077
899
741
642
590
534
493
498
559
680
846
994
1118
1276
1479
1703
1942
2165
2363
2537
2687
2802
2858
2863
2822
2705
2486
2166
1787
1378
932
434
-91
-573
-985
-1346
-1671
-1950
-2188
-2367
-2458
-2481
-2470
-2427
-2344
-2246
-2144
-2003
-1802
-1556
-1312
-1097
-911
-736
-570
-410
-247
-89
62
201
297
339
363
380
398
442
463
408
281
112
-65
-222
-358
-505
-668
-815
-945
-1061
-1155
-1235
-1285
-1311
-1316
-1299
-1250
-1179
-1104
-1031
-938
-812
-678
-555
-455
-366
-249
-99
74
244
391
516
635
748
852
941
1019
1097
1180
1283
1405
1551
1707
1861
2011
2138
2237
2307
2342
2347
2318
2239
2119
1950
1736
1494
1231
939
638
336
45
-223
-456
-657
-828
-964
-1061
-1122
-1146
-1135
-1098
-1041
-953
-848
-735
-608
-480
-360
-244
-140
-43
43
116
168
199
205
184
141
72
-24
-146
-283
-434
-594
-759
-923
-1075
-1219
-1346
-1452
-1541
-1610
-1660
-1689
-1699
-1688
-1666
-1631
-1591
-1545
-1492
-1434
-1375
-1319
-1254
-1185
-1110
-1034
-954
-869
-787
-701
-616
-537
-461
-389
-324
-258
-201
-148
-95
-47
6
62
113
168
226
288
358
425
503
579
653
728
799
873
942
1011
1077
1143
1208
1265
1316
1357
1393
1422
1434
1424
1375
1309
1458
1721
1651
1379
1261
1295
1347
1315
1218
1114
1023
943
873
782
684
639
554
450
374
316
277
256
261
257
245
222
164
128
159
201
213
186
143
106
76
53
18
-35
-72
-82
-78
-90
-148
-218
-275
-320
-359
-394
-407
-426
-473
-515
-570
-659
-732
-780
-821
-863
-900
-936
-1002
-1075
-1121
-1143
-1116
-1063
-1002
-926
-863
-822
-780
-721
-661
-607
-557
-485
-399
-323
-274
-228
-164
-107
-51
3
44
79
103
86
67
122
163
160
146
183
258
329
387
423
448
468
519
596
677
766
842
880
896
920
970
1031
1069
1057
1034
1024
1039
1100
1168
1166
1124
1099
1094
1076
1045
1008
974
968
982
989
976
942
916
892
837
772
689
643
644
607
522
424
338
264
204
170
149
119
89
52
5
-50
-97
-145
-201
-249
-282
-311
-346
-388
-435
-485
-535
-582
-630
-684
-749
-816
-878
-951
-1018
-1093
-1189
-1299
-1406
-1487
-1527
-1535
-1526
-1519
-1515
-1512
-1504
-1466
-1405
-1331
-1251
-1164
-1070
-964
-850
-726
-603
-490
-383
-273
-167
-68
29
113
176
229
271
302
325
339
339
328
303
265
222
173
112
48
-20
-84
-148
-206
-265
-318
-364
-410
-451
-488
-520
-550
-579
-601
-615
-622
-623
-617
-602
-577
-543
-504
-456
-401
-341
-270
-193
-117
-36
45
127
217
302
387
470
551
636
710
784
853
924
989
1044
1093
1134
1169
1198
1223
1242
1256
1261
1268
1271
1268
1261
1249
1233
1217
1200
1173
1135
1096
1050
1001
950
895
834
772
714
657
600
542
481
413
334
247
148
37
-91
-244
-414
-609
-823
-1055
-1297
-1547
-1795
-2040
-2278
-2507
-2718
-2917
-3099
-3258
-3400
-3518
-3607
-3674
-3717
-3733
-3725
-3689
-3632
-3553
-3453
-3331
-3192
-3037
-2868
-2686
-2493
-2285
-2072
-1859
-1639
-1422
-1202
-976
-746
-517
-288
-65
151
365
564
754
930
1094
1244
1378
1500
1604
1689
1763
1821
1866
1896
1913
1918
1921
1917
1899
1869
1820
1743
1603
1471
1489
1624
1791
1865
1732
1526
1397
1362
1428
1521
1561
1533
1422
1296
1264
1304
1356
1382
1361
1338
1336
1362
1411
1461
1502
1538
1576
1610
1637
1656
1667
1661
1647
1629
1617
1616
1607
1583
1549
1494
1438
1376
1312
1252
1201
1153
1101
1045
986
932
886
844
802
755
711
663
625
595
565
538
512
492
475
458
443
427
406
379
347
311
270
219
162
98
27
-51
-136
-235
-343
-469
-607
-756
-917
-1081
-1257
-1434
-1614
-1792
-1964
-2129
-2284
-2428
-2564
-2686
-2799
-2897
-2980
-3051
-3106
-3143
-3159
-3161
-3151
-3122
-3077
-3022
-2951
-2868
-2765
-2651
-2528
-2396
-2252
-2106
-1954
-1796
-1639
-1481
-1319
-1154
-984
-816
-653
-492
-334
-183
-41
94
220
330
431
521
608
686
758
825
880
931
978
1025
1071
1116
1164
1210
1245
1278
1311
1343
1373
1398
1422
1441
1453
1460
1465
1463
1465
1467
1471
1480
1485
1480
1476
1473
1469
1459
1455
1447
1439
1439
1437
1441
1445
1445
1441
1435
1433
1431
1430
1428
1421
1411
1404
1395
1384
1368
1350
1329
1308
1286
1260
1236
1206
1177
1150
1122
1096
1065
1031
989
949
903
848
791
729
663
588
510
418
319
211
94
-33
-176
-325
-496
-675
-867
-1068
-1272
-1484
-1703
-1926
-2150
-2375
-2603
-2821
-3031
-3229
-3407
-3570
-3702
-3802
-3874
-3915
-3933
-3926
-3898
-3851
-3789
-3717
-3632
-3529
-3410
-3278
-3131
-2970
-2795
-2607
-2412
-2206
-1993
-1774
-1553
-1332
-1117
-902
-694
-490
-296
-110
72
247
409
571
724
869
1008
1137
1254
1359
1456
1541
1621
1687
1746
1799
1846
1891
1930
1961
1986
2005
2017
2026
2032
2034
2031
2021
2016
2004
1990
1977
1961
1951
1944
1940
1932
1931
1937
1947
1959
1972
1988
2008
2050
2114
2190
2254
2304
2349
2374
2393
2409
2429
2479
2581
2737
2897
3008
3040
3028
3024
3094
3228
3291
3149
2811
2338
1771
1145
460
-282
-1030
-1727
-2345
-2856
-3253
-3555
-3782
-3939
-4025
-4045
-4018
-3977
-3938
-3903
-3863
-3802
-3712
-3605
-3481
-3348
-3210
-3063
-2911
-2742
-2554
-2358
-2149
-1925
-1692
-1449
-1206
-966
-740
-533
-346
-176
-22
112
227
322
399
465
522
572
613
646
671
689
698
705
707
696
685
669
655
648
647
660
687
721
768
823
876
933
987
1036
1075
1083
1093
1110
1101
1069
1032
1000
962
904
840
782
730
666
605
557
506
453
410
383
366
348
335
327
323
318
319
320
327
332
339
354
369
390
414
442
474
503
538
568
606
646
683
726
764
808
851
894
931
970
1008
1046
1085
1116
1143
1158
1165
1171
1172
1161
1148
1131
1103
1068
1022
970
914
844
767
682
585
483
373
253
112
-42
-206
-382
-569
-764
-964
-1167
-1372
-1580
-1784
-1985
-2180
-2369
-2543
-2704
-2849
-2977
-3093
-3193
-3275
-3341
-3390
-3420
-3433
-3425
-3393
-3344
-3280
-3196
-3095
-2984
-2863
-2730
-2589
-2445
-2297
-2147
-2003
-1861
-1719
-1583
-1447
-1313
-1184
-1048
-916
-785
-657
-534
-413
-297
-189
-83
10
95
173
238
299
355
403
450
498
542
588
633
675
721
759
799
838
870
900
924
943
962
982
1003
1019
1023
999
876
171
-1905
-4261
-4794
-3177
-591
1698
3094
3729
3735
3422
3599
5100
7502
9367
9652
8408
6509
4916
4028
3664
3401
2934
2204
1333
483
-240
-815
-1280
-1677
-2047
-2417
-2779
-3124
-3425
-3665
-3831
-3942
-4014
-4052
-4061
-4044
-3983
-3869
-3705
-3495
-3254
-2996
-2727
-2461
-2204
-1956
-1729
-1517
-1323
-1151
-1007
-893
-806
-746
-703
-671
-655
-649
-644
-635
-623
-602
-574
-532
-472
-390
-287
-173
-44
99
252
414
583
745
896
1039
1163
1269
1359
1428
1477
1510
1522
1526
1519
1502
1478
1439
1393
1343
1285
1224
1155
1083
1016
951
900
851
811
770
733
698
675
656
642
635
626
616
609
604
599
595
592
589
584
583
581
583
574
557
533
503
486
502
558
642
749
858
968
1089
1215
1340
1448
1524
1572
1598
1604
1594
1560
1510
1454
1378
1280
1166
1040
906
766
627
476
309
145
-15
-161
-295
-421
-546
-673
-786
-878
-962
-1030
-1079
-1113
-1141
-1162
-1175
-1175
-1172
-1159
-1141
-1124
-1100
-1081
-1062
-1039
-1014
-990
-968
-949
-927
-902
-874
-842
-816
-798
-790
-791
-789
-779
-770
-763
-760
-764
-764
-761
-757
-752
-749
-745
-738
-721
-695
-666
-639
-614
-584
-552
-520
-494
-463
-422
-378
-328
-274
-212
-145
-80
-21
28
69
112
154
183
194
192
184
184
186
194
203
205
203
188
163
132
96
63
30
6
-8
-21
-32
-39
-53
-65
-71
-76
-76
-67
-44
-14
27
71
123
180
229
270
304
331
354
368
381
391
393
387
378
360
323
269
191
95
-15
-126
-228
-307
-354
-368
-356
-322
-265
-189
-117
-58
-15
14
38
48
43
45
52
58
69
74
80
91
101
113
118
113
97
75
48
19
-10
-36
-64
-84
-106
-124
-139
-146
-148
-143
-127
-110
-93
-73
-49
-21
12
41
63
77
84
86
83
77
78
88
96
110
123
134
150
157
156
142
98
15
-87
-168
-195
-154
-73
3
67
120
183
257
314
322
264
196
162
118
-56
-438
-905
-1223
-1235
-991
-660
-405
-270
-187
-66
146
393
596
726
808
883
978
1096
1225
1323
1387
1403
1346
1263
1178
1122
1090
1030
927
793
651
540
444
352
261
177
99
21
-47
-97
-118
-114
-105
-111
-133
-159
-179
-198
-220
-250
-299
-359
-423
-480
-532
-577
-616
-647
-673
-684
-688
-682
-667
-642
-610
-568
-522
-470
-416
-362
-301
-239
-176
-111
-51
4
49
89
116
133
137
137
132
117
101
77
54
26
-2
-30
-53
-74
-88
-96
-101
-108
-105
-104
-102
-93
-82
-69
-52
-40
-31
-30
-30
-38
-48
-64
-80
-98
-121
-145
-173
-196
-215
-237
-254
-273
-290
-305
-325
-342
-358
-374
-385
-389
-391
-390
-386
-380
-371
-360
-348
-331
-316
-303
-289
-280
-267
-258
-251
-240
-232
-224
-215
-206
-197
-191
-179
-167
-155
-144
-129
-114
-93
-70
-44
-18
6
29
50
66
80
90
90
85
70
41
10
-32
-79
-127
-179
-229
-280
-328
-370
-406
-438
-460
-468
-463
-442
-410
-373
-328
-278
-225
-169
-108
-50
11
69
121
172
212
251
288
326
364
401
438
474
505
539
570
597
620
642
659
672
679
685
687
685
679
666
654
639
620
601
579
558
536
514
489
463
439
412
382
356
323
290
254
218
183
150
118
87
64
40
16
-7
-26
-42
-51
-59
-65
-65
-67
-63
-65
-70
-78
-90
-97
-111
-130
-152
-178
-203
-230
-255
-285
-314
-345
-372
-397
-425
-447
-471
-495
-512
-529
-546
-565
-582
-601
-609
-614
-614
-606
-593
-571
-539
-503
-462
-413
-365
-308
-253
-201
-152
-113
-79
-47
-13
22
58
89
116
143
174
198
221
233
243
249
244
236
221
199
180
155
128
100
75
49
28
7
-10
-25
-38
-46
-51
-50
-52
-49
-42
-31
-18
-1
15
33
54
82
109
138
170
199
227
250
273
300
323
350
377
411
443
472
499
520
543
557
571
573
573
570
566
559
551
534
516
500
485
472
460
454
448
441
436
431
428
426
424
424
427
432
436
439
443
443
441
437
425
411
390
368
346
320
292
260
232
204
182
156
128
101
72
42
9
-25
-57
-85
-109
-128
-140
-146
-152
-149
-145
-136
-130
-122
-111
-103
-96
-90
-90
-90
-89
-99
-105
-113
-126
-133
-143
-151
-154
-157
-159
-161
-162
-163
-163
-164
-169
-170
-171
-172
-175
-182
-193
-209
-231
-250
-276
-298
-320
-345
-370
-396
-419
-443
-463
-477
-493
-492
-490
-483
-472
-464
-457
-451
-440
-426
-410
-387
-367
-347
-330
-316
-299
-282
-263
-242
-219
-197
-174
-147
-124
-103
-82
-63
-42
-20
-3
12
26
42
60
76
91
97
103
106
105
99
87
70
49
23
-7
-42
-83
-125
-167
-213
-261
-309
-360
-408
-450
-488
-518
-543
-561
-570
-570
-565
-551
-539
-521
-494
-463
-433
-399
-363
-329
-294
-261
-231
-208
-181
-157
-131
-105
-81
-60
-41
-26
-18
-15
-11
-6
-2
1
4
3
6
11
20
33
48
66
86
105
122
134
146
150
151
153
156
160
166
168
170
170
170
172
179
184
180
181
183
190
196
205
214
224
229
231
232
236
243
248
253
260
266
270
276
289
299
307
311
312
311
305
300
294
289
287
289
294
301
312
319
326
330
328
325
315
299
279
257
231
207
184
162
156
154
161
176
190
206
223
235
245
252
254
256
251
244
234
226
217
207
191
173
154
135
113
91
66
39
16
-12
-37
-57
-77
-89
-103
-114
-124
-129
-132
-131
-125
-116
-103
-89
-68
-47
-24
-1
26
54
85
114
138
163
191
220
250
282
316
350
383
416
446
473
497
521
542
562
574
582
586
586
584
580
573
562
547
539
530
526
523
520
514
510
504
499
494
488
476
463
443
421
399
375
352
324
293
255
222
189
159
129
99
79
57
38
15
-9
-32
-57
-82
-105
-132
-157
-183
-214
-242
-274
-303
-333
-362
-391
-423
-459
-501
-545
-589
-636
-681
-718
-753
-779
-800
-823
-839
-848
-852
-849
-842
-833
-816
-797
-772
-744
-718
-688
-656
-623
-577
-521
-463
-405
-341
-279
-213
-148
-84
-23
34
90
143
187
228
265
299
338
369
396
417
433
444
454
463
466
472
473
472
471
468
464
457
451
437
421
400
376
347
311
275
235
193
149
106
67
28
-10
-51
-94
-136
-180
-231
-277
-328
-381
-433
-488
-544
-602
-660
-722
-787
-857
-928
-996
-1066
-1127
-1186
-1238
-1278
-1310
-1331
-1343
-1345
-1340
-1325
-1304
-1283
-1255
-1225
-1189
-1154
-1118
-1079
-1031
-976
-912
-838
-764
-688
-605
-520
-434
-343
-250
-154
-54
47
148
249
349
438
522
599
669
733
794
852
901
949
985
1019
1054
1086
1115
1141
1157
1166
1168
1158
1145
1127
1102
1077
1053
1030
1004
976
946
917
891
870
851
832
818
798
773
741
705
670
641
610
581
554
531
516
503
500
493
486
480
473
466
450
432
408
377
340
294
241
178
110
36
-40
-121
-202
-286
-374
-464
-560
-656
-750
-849
-950
-1054
-1165
-1270
-1371
-1473
-1567
-1651
-1725
-1782
-1826
-1857
-1878
-1887
-1884
-1869
-1843
-1803
-1753
-1699
-1639
-1576
-1514
-1447
-1385
-1321
-1259
-1193
-1127
-1063
-997
-936
-870
-800
-728
-651
-568
-478
-388
-296
-203
-116
-27
66
157
248
330
408
477
540
595
650
702
759
816
874
927
973
1020
1061
1097
1123
1143
1160
1169
1184
1192
1194
1189
1187
1184
1174
1159
1143
1135
1132
1124
1118
1106
1088
1070
1052
1035
1013
999
977
958
945
934
935
935
938
938
941
948
956
963
968
975
979
980
982
980
975
959
939
913
876
835
783
720
642
550
438
315
179
34
-119
-271
-420
-568
-709
-852
-981
-1103
-1216
-1316
-1404
-1480
-1550
-1610
-1660
-1700
-1730
-1750
-1761
-1761
-1751
-1730
-1703
-1666
-1624
-1575
-1523
-1467
-1405
-1342
-1275
-1198
-1125
-1038
-946
-844
-744
-642
-544
-446
-348
-252
-154
-56
33
123
212
292
372
441
505
568
627
683
739
791
838
882
921
955
981
998
1008
1007
1004
1003
995
979
959
936
910
887
862
839
812
784
761
735
712
691
670
657
643
630
623
624
626
631
636
643
651
665
682
693
715
736
757
780
805
837
871
903
929
952
970
987
1000
1010
1015
1021
1021
1017
1009
1000
985
975
961
941
916
888
857
817
774
725
671
612
551
482
402
313
209
95
-28
-158
-294
-440
-595
-757
-932
-1114
-1302
-1496
-1689
-1880
-2061
-2231
-2389
-2530
-2655
-2764
-2853
-2924
-2981
-3029
-3067
-3092
-3104
-3101
-3087
-3062
-3024
-2970
-2898
-2809
-2705
-2583
-2444
-2295
-2134
-1965
-1791
-1611
-1432
-1252
-1068
-883
-696
-511
-335
-162
-1
151
299
430
551
665
763
852
927
990
1043
1085
1114
1135
1147
1156
1160
1168
1171
1177
1186
1192
1195
1200
1204
1215
1230
1250
1271
1289
1302
1315
1322
1329
1336
1350
1364
1375
1390
1409
1430
1448
1462
1473
1480
1490
1500
1510
1521
1525
1531
1535
1538
1534
1523
1505
1485
1460
1436
1403
1361
1314
1262
1216
1150
1064
993
959
945
943
946
950
942
931
911
886
857
825
785
735
681
620
553
485
401
307
198
76
-59
-210
-375
-541
-702
-853
-996
-1127
-1244
-1354
-1461
-1559
-1657
-1759
-1863
-1965
-2068
-2175
-2288
-2409
-2538
-2690
-2845
-2984
-3121
-3254
-3361
-3436
-3485
-3526
-3565
-3601
-3612
-3601
-3564
-3509
-3437
-3345
-3237
-3111
-2972
-2821
-2660
-2491
-2312
-2135
-1962
-1791
-1635
-1483
-1333
-1195
-1067
-950
-839
-723
-604
-468
-310
-121
97
342
619
916
1240
1575
1920
2258
2587
2895
3189
3462
3708
3920
4088
4216
4291
4315
4285
4195
4051
3852
3604
3318
3009
2691
2374
2066
1780
1520
1300
1120
983
881
821
791
790
813
851
900
959
1021
1089
1164
1238
1307
1363
1405
1438
1449
1434
1399
1331
1250
1191
1138
1053
917
750
586
422
246
57
-150
-362
-552
-714
-855
-983
-1090
-1171
-1234
-1289
-1338
-1392
-1452
-1527
-1632
-1757
-1872
-1967
-2031
-2073
-2103
-2112
-2083
-2014
-1916
-1794
-1662
-1529
-1409
-1308
-1215
-1139
-1090
-1053
-1005
-943
-865
-774
-667
-532
-374
-195
2
201
400
590
763
916
1044
1140
1196
1216
1197
1147
1068
972
862
741
620
505
399
307
237
186
156
142
142
163
196
243
299
358
425
494
572
652
734
817
890
954
1007
1046
1070
1076
1061
1027
969
894
804
694
570
436
294
151
7
-132
-263
-386
-490
-575
-649
-696
-727
-743
-739
-717
-675
-616
-541
-449
-340
-222
-96
27
139
247
348
442
527
596
661
709
734
734
709
672
626
572
505
425
321
199
66
-74
-205
-331
-454
-569
-682
-793
-894
-982
-1059
-1123
-1181
-1238
-1285
-1329
-1366
-1398
-1423
-1441
-1457
-1463
-1460
-1449
-1426
-1388
-1343
-1287
-1220
-1146
-1066
-984
-898
-806
-711
-611
-510
-405
-299
-202
-101
-2
91
179
261
336
402
458
512
550
584
610
631
651
667
680
690
694
696
702
705
710
713
718
727
735
742
745
742
736
731
725
717
710
701
691
680
667
653
640
631
617
604
596
588
581
575
568
559
552
544
533
530
522
520
521
524
530
536
545
553
557
560
564
560
555
549
541
532
529
523
521
516
510
509
514
516
518
523
530
540
547
545
536
519
506
497
487
465
437
404
374
343
312
278
247
213
177
140
97
62
25
-16
-55
-100
-154
-204
-264
-322
-376
-428
-480
-534
-593
-658
-724
-799
-878
-962
-1049
-1134
-1208
-1271
-1324
-1358
-1374
-1375
-1367
-1353
-1333
-1311
-1281
-1249
-1213
-1172
-1129
-1083
-1033
-974
-912
-845
-771
-695
-613
-531
-444
-354
-264
-182
-104
-23
51
122
186
239
285
321
348
364
368
369
367
366
361
355
347
344
340
331
328
322
309
301
289
277
261
243
222
199
167
136
96
51
3
-54
-110
-170
-235
-299
-370
-437
-498
-559
-617
-669
-715
-754
-788
-816
-837
-853
-862
-867
-866
-853
-829
-793
-754
-716
-669
-618
-563
-504
-441
-371
-293
-216
-141
-73
-5
56
112
160
202
239
271
301
327
344
355
356
351
340
323
305
277
258
231
201
176
148
129
109
88
72
53
35
18
3
-10
-24
-30
-34
-29
-19
-11
-3
9
25
44
65
81
93
108
109
110
102
89
80
66
52
37
25
24
27
34
49
68
95
128
162
193
225
255
285
319
349
377
401
425
446
464
478
487
496
499
501
501
498
498
492
489
488
487
483
479
474
471
473
472
475
477
480
487
493
501
509
515
516
515
512
507
499
484
463
440
414
394
368
338
302
260
194
103
50
-27
-114
-149
-155
-148
-138
-135
-120
-88
-53
-27
-20
-15
-16
-33
-62
-106
-170
-240
-310
-386
-458
-529
-600
-659
-711
-750
-780
-794
-800
-802
-802
-795
-779
-762
-749
-736
-726
-716
-705
-696
-680
-662
-644
-624
-599
-574
-548
-518
-488
-459
-428
-400
-378
-363
-357
-359
-366
-376
-391
-406
-424
-439
-457
-474
-494
-515
-537
-561
-588
-611
-634
-663
-685
-697
-695
-684
-678
-673
-663
-640
-604
-571
-548
-532
-511
-485
-449
-404
-371
-339
-312
-284
-246
-213
-176
-142
-112
-81
-48
-15
20
53
84
121
156
184
212
233
253
271
285
302
318
332
342
350
354
355
354
353
351
346
345
340
339
339
344
350
358
367
379
385
394
391
390
394
394
394
388
379
365
339
314
277
232
182
129
80
33
-12
-49
-85
-113
-136
-156
-168
-180
-186
-189
-190
-185
-181
-174
-161
-152
-139
-122
-104
-91
-82
-68
-54
-39
-25
-14
-5
14
35
65
102
141
181
228
275
326
383
439
493
545
589
629
659
679
691
698
701
700
694
681
665
645
624
593
557
518
478
440
403
372
347
326
311
302
298
300
304
311
322
324
327
331
335
341
347
355
358
363
359
356
351
348
344
324
275
232
241
283
369
478
503
411
291
236
299
409
446
404
370
383
446
514
568
608
631
648
665
687
712
735
758
768
773
768
751
737
728
707
684
672
664
658
655
650
640
624
602
556
504
464
417
364
303
252
225
221
208
191
190
203
233
279
339
413
503
602
706
807
895
958
995
1021
1052
1111
1222
1376
1505
1571
1567
1528
1524
1565
1609
1543
1280
857
340
-216
-821
-1496
-2213
-2914
-3541
-4066
-4478
-4770
-4951
-5036
-5032
-4966
-4848
-4686
-4498
-4293
-4075
-3852
-3612
-3350
-3073
-2779
-2474
-2160
-1844
-1516
-1178
-840
-506
-188
112
391
642
864
1050
1201
1314
1386
1426
1437
1425
1396
1354
1304
1244
1177
1099
1015
931
849
768
693
622
555
498
458
426
406
402
410
431
461
500
544
591
636
677
711
736
758
768
770
760
736
704
660
595
519
438
351
265
178
89
-1
-85
-168
-242
-313
-380
-446
-507
-565
-609
-648
-687
-721
-758
-786
-803
-810
-800
-780
-754
-712
-663
-612
-558
-509
-465
-434
-415
-405
-402
-405
-410
-417
-420
-416
-408
-398
-386
-372
-355
-331
-297
-251
-203
-144
-71
-9
4
31
176
368
551
697
790
850
906
970
1038
1099
1147
1178
1195
1209
1224
1239
1248
1247
1240
1229
1219
1208
1186
1153
1108
1060
1021
991
967
940
898
844
787
727
674
624
572
519
468
431
395
353
317
304
262
154
-30
-217
-291
-257
-215
-251
-327
-382
-394
-333
-225
-116
-32
13
37
76
115
150
174
179
167
146
127
105
78
37
-21
-85
-153
-220
-283
-338
-394
-456
-527
-596
-664
-729
-790
-850
-899
-948
-989
-1026
-1065
-1100
-1131
-1144
-1139
-1122
-1093
-1055
-1016
-969
-920
-872
-832
-800
-770
-746
-730
-726
-733
-746
-770
-797
-831
-864
-904
-948
-990
-1032
-1068
-1103
-1134
-1165
-1196
-1223
-1245
-1261
-1271
-1274
-1278
-1275
-1270
-1263
-1252
-1238
-1219
-1200
-1174
-1149
-1128
-1104
-1079
-1042
-993
-929
-852
-765
-679
-590
-508
-432
-358
-288
-220
-156
-89
-26
35
95
148
198
246
286
320
349
374
397
418
439
461
484
508
534
561
587
610
626
636
645
655
666
679
692
704
720
733
741
722
660
612
647
751
851
913
955
1028
1109
1082
914
728
619
591
573
553
533
499
464
452
453
424
344
275
262
270
248
187
123
85
48
-12
-77
-126
-156
-156
-143
-134
-145
-180
-226
-260
-268
-269
-276
-280
-283
-281
-285
-287
-283
-286
-293
-291
-281
-275
-269
-271
-274
-271
-272
-285
-301
-320
-338
-358
-382
-405
-421
-433
-447
-460
-473
-485
-488
-488
-487
-483
-482
-481
-481
-482
-486
-489
-487
-488
-483
-478
-468
-455
-440
-418
-392
-361
-325
-286
-243
-195
-152
-104
-56
-2
51
103
154
203
244
286
321
357
395
431
463
489
512
534
552
564
577
583
589
592
584
577
567
548
530
505
483
461
440
419
399
376
350
325
302
287
275
258
235
211
183
154
130
109
96
81
70
62
59
60
67
75
85
104
123
143
168
196
220
244
266
283
291
294
293
288
276
257
238
214
184
150
116
83
54
26
0
-19
-33
-46
-53
-55
-57
-51
-43
-32
-19
-15
-6
6
13
24
38
55
78
105
135
170
211
262
316
377
437
496
556
615
670
725
776
816
851
884
911
942
965
989
1013
1037
1061
1078
1094
1099
1097
1090
1077
1062
1042
1017
991
960
926
892
859
823
783
741
693
639
581
518
453
397
337
280
229
178
134
98
62
33
13
-5
-20
-29
-44
-57
-70
-86
-95
-104
-112
-117
-119
-121
-123
-126
-130
-134
-139
-150
-158
-164
-169
-173
-177
-175
-170
-170
-163
-159
-154
-149
-152
-162
-172
-189
-212
-236
-266
-291
-310
-328
-340
-351
-359
-361
-359
-353
-344
-335
-316
-301
-289
-282
-281
-289
-299
-304
-312
-317
-321
-327
-329
-334
-339
-343
-347
-350
-352
-349
-345
-340
-337
-330
-320
-306
-290
-271
-246
-214
-181
-144
-102
-57
-10
38
86
132
179
225
270
313
348
383
411
440
466
492
524
553
583
611
635
655
671
680
682
679
674
659
639
618
589
561
525
487
444
391
332
269
202
124
49
-26
-90
-144
-188
-211
-219
-210
-195
-181
-180
-173
-177
-209
-242
-220
-138
-44
16
31
12
-14
-33
-53
-77
-97
-113
-120
-120
-119
-119
-125
-135
-145
-150
-148
-145
-146
-148
-153
-163
-174
-186
-204
-229
-259
-295
-328
-364
-398
-434
-467
-489
-508
-521
-527
-529
-523
-516
-507
-495
-484
-477
-467
-464
-465
-464
-463
-470
-488
-541
-643
-935
-1596
-2341
-2675
-2447
-1897
-1385
-1132
-1081
-1018
-804
-447
-75
187
313
361
415
511
638
748
788
775
765
797
840
822
733
637
578
554
538
498
440
359
286
252
256
276
295
303
313
326
350
378
405
429
449
463
469
461
441
408
364
308
240
153
44
-123
-445
-1339
-2884
-4026
-3758
-2146
-77
1476
2188
2407
2603
3099
3774
4213
4224
3979
3690
3401
3057
2700
2434
2234
2019
1739
1353
864
327
-191
-667
-1104
-1509
-1885
-2243
-2580
-2876
-3114
-3294
-3410
-3466
-3476
-3446
-3377
-3280
-3151
-2994
-2818
-2627
-2428
-2231
-2036
-1848
-1675
-1509
-1360
-1223
-1093
-975
-873
-784
-717
-662
-619
-592
-574
-564
-562
-558
-551
-546
-530
-501
-463
-413
-358
-292
-218
-140
-50
46
144
241
338
432
524
609
689
761
823
877
924
962
988
1009
1015
1004
982
943
893
842
786
737
684
643
601
566
541
518
503
492
477
469
459
452
445
440
440
434
431
431
427
427
431
436
441
451
460
470
482
489
497
509
519
526
530
532
532
526
514
496
467
432
397
351
307
255
198
139
75
7
-61
-133
-206
-273
-337
-392
-439
-478
-515
-544
-564
-585
-604
-624
-639
-652
-660
-673
-683
-692
-695
-693
-682
-666
-643
-608
-571
-532
-489
-442
-396
-346
-299
-255
-209
-168
-130
-92
-56
-21
7
29
35
46
66
84
87
70
68
77
79
73
55
40
26
9
-11
-36
-56
-72
-83
-90
-92
-93
-87
-74
-59
-42
-18
5
31
60
90
126
160
193
229
262
290
316
345
367
400
428
452
476
499
521
544
562
579
592
602
611
621
628
633
641
650
658
664
669
673
677
680
687
694
698
708
716
718
719
714
704
692
671
653
634
611
582
540
497
445
386
327
260
196
129
54
-26
-109
-189
-266
-340
-416
-492
-565
-635
-701
-755
-805
-849
-888
-922
-949
-971
-984
-985
-979
-967
-952
-935
-911
-885
-859
-828
-792
-759
-721
-683
-647
-609
-570
-532
-488
-444
-400
-352
-305
-260
-209
-161
-110
-63
-16
22
60
94
125
160
191
226
263
298
333
366
396
427
452
478
506
538
570
603
630
653
669
677
669
663
678
727
802
885
984
1092
1218
1341
1439
1501
1526
1523
1511
1490
1448
1380
1291
1176
1038
889
740
593
440
281
123
-29
-166
-289
-408
-516
-611
-699
-782
-855
-920
-974
-1012
-1040
-1056
-1064
-1068
-1058
-1039
-1013
-975
-936
-888
-832
-775
-712
-642
-572
-499
-424
-352
-282
-215
-154
-101
-53
-11
35
78
117
159
203
247
293
339
386
426
464
497
532
565
591
610
625
638
651
663
674
679
683
681
679
680
679
683
682
679
675
666
653
636
616
597
577
560
546
535
527
520
512
499
480
453
431
402
375
340
291
243
181
96
-42
-248
-471
-622
-643
-551
-424
-345
-333
-349
-329
-262
-184
-140
-138
-173
-222
-265
-308
-353
-412
-502
-627
-767
-908
-1035
-1148
-1256
-1361
-1470
-1573
-1666
-1745
-1815
-1873
-1920
-1956
-1985
-1994
-1986
-1962
-1920
-1864
-1797
-1715
-1629
-1541
-1452
-1359
-1268
-1175
-1083
-990
-899
-809
-718
-623
-526
-428
-326
-228
-133
-38
56
149
237
319
394
467
534
595
657
710
762
812
859
903
943
978
1012
1041
1067
1088
1102
1116
1123
1128
1128
1125
1122
1119
1117
1112
1114
1115
1117
1127
1132
1137
1140
1145
1147
1148
1148
1147
1142
1134
1132
1125
1118
1106
1091
1074
1050
1021
991
954
908
859
806
751
694
642
589
537
484
433
379
329
283
237
191
145
92
35
-25
-94
-167
-242
-319
-399
-479
-567
-654
-742
-832
-924
-1015
-1106
-1196
-1287
-1379
-1459
-1539
-1610
-1672
-1729
-1776
-1812
-1841
-1862
-1878
-1885
-1885
-1875
-1854
-1827
-1795
-1759
-1716
-1674
-1623
-1570
-1513
-1446
-1376
-1299
-1218
-1130
-1036
-935
-833
-726
-623
-521
-417
-315
-218
-128
-42
36
108
177
242
305
362
416
473
530
580
627
669
711
740
765
787
798
811
817
822
824
828
836
845
852
857
857
855
854
854
849
837
824
807
792
774
760
747
738
729
716
706
692
673
651
629
604
572
536
498
455
417
375
336
298
266
234
201
167
135
104
76
53
34
19
7
-1
-4
-10
-14
-20
-34
-46
-64
-84
-105
-132
-161
-195
-232
-271
-310
-356
-404
-455
-509
-562
-619
-670
-715
-759
-800
-834
-863
-877
-883
-886
-882
-867
-843
-814
-781
-746
-714
-682
-647
-615
-581
-547
-514
-482
-451
-420
-390
-361
-334
-307
-281
-252
-224
-197
-171
-143
-110
-74
-34
10
57
101
145
193
239
288
329
365
397
422
444
462
477
489
499
509
517
519
525
528
536
548
562
585
613
645
678
713
752
785
815
843
866
890
910
928
944
957
963
965
965
968
972
979
989
995
1002
1009
1014
1023
1031
1038
1048
1056
1065
1069
1071
1073
1070
1063
1046
1018
985
939
886
822
747
662
572
475
378
283
195
112
29
-46
-111
-170
-223
-290
-413
-748
-1260
-1640
-1692
-1463
-1131
-875
-760
-728
-668
-538
-376
-222
-111
-39
17
66
111
158
222
291
337
336
279
204
164
154
136
92
21
-59
-139
-212
-289
-360
-416
-457
-484
-492
-497
-495
-481
-461
-432
-403
-374
-342
-314
-284
-264
-257
-253
-259
-270
-285
-316
-354
-396
-441
-488
-534
-584
-636
-687
-737
-779
-812
-833
-844
-840
-830
-815
-794
-770
-741
-708
-673
-639
-599
-563
-522
-486
-453
-418
-382
-348
-318
-289
-259
-228
-201
-177
-155
-140
-120
-101
-80
-62
-47
-36
-26
-17
-13
-13
-26
-47
-78
-117
-164
-218
-279
-339
-400
-465
-532
-605
-676
-748
-819
-886
-952
-1016
-1078
-1134
-1189
-1233
-1273
-1308
-1337
-1365
-1388
-1404
-1415
-1423
-1424
-1424
-1418
-1407
-1388
-1364
-1338
-1309
-1279
-1242
-1198
-1149
-1094
-1035
-974
-907
-836
-762
-683
-600
-515
-426
-336
-244
-154
-62
35
133
230
326
418
513
606
699
781
860
927
996
1060
1118
1169
1205
1234
1253
1259
1253
1230
1189
1138
1076
1014
967
938
939
974
1050
1157
1304
1486
1698
1930
2173
2424
2670
2905
3119
3307
3469
3597
3680
3699
3656
3553
3395
3188
2928
2622
2279
1909
1533
1168
816
462
120
-192
-458
-674
-844
-968
-1061
-1117
-1128
-1099
-1040
-971
-913
-856
-796
-733
-665
-592
-529
-477
-430
-394
-374
-388
-456
-557
-675
-810
-959
-1124
-1297
-1474
-1634
-1789
-1950
-2115
-2284
-2537
-2914
-3261
-3430
-3376
-3197
-3033
-2943
-2889
-2810
-2663
-2469
-2275
-2107
-1954
-1789
-1593
-1371
-1137
-899
-673
-460
-236
7
259
512
746
966
1177
1378
1573
1763
1947
2115
2264
2398
2521
2627
2709
2756
2755
2708
2625
2519
2383
2232
2059
1864
1651
1425
1196
973
756
545
342
142
-51
-233
-405
-564
-710
-839
-950
-1044
-1114
-1162
-1187
-1187
-1168
-1122
-1066
-997
-924
-849
-776
-711
-652
-601
-566
-544
-535
-543
-565
-601
-646
-701
-756
-810
-863
-918
-964
-1003
-1038
-1057
-1068
-1063
-1047
-1019
-977
-918
-844
-749
-647
-530
-406
-273
-129
20
175
330
480
627
765
894
1011
1116
1204
1276
1328
1354
1361
1348
1319
1272
1207
1135
1059
976
892
804
719
634
556
488
415
346
279
215
154
97
45
-2
-43
-74
-97
-110
-117
-120
-117
-108
-96
-82
-65
-44
-19
12
47
86
133
184
233
285
337
391
445
495
541
575
601
623
642
659
671
677
680
676
670
661
638
612
584
556
531
501
466
430
390
341
279
208
143
92
48
8
-33
-70
-101
-119
-136
-149
-159
-154
-138
-120
-101
-78
-50
-12
24
55
88
123
157
185
210
225
224
204
105
-160
-516
-751
-744
-544
-305
-149
-112
-138
-120
-34
82
170
207
209
197
190
195
198
204
206
201
209
231
254
264
261
259
262
267
260
246
228
203
191
195
205
221
246
273
308
351
404
528
872
1188
1066
753
658
702
699
622
510
411
349
313
276
231
175
128
84
39
0
-39
-80
-119
-148
-168
-188
-214
-256
-318
-393
-460
-492
-497
-496
-523
-574
-633
-672
-696
-721
-733
-730
-726
-721
-710
-689
-655
-594
-519
-439
-362
-283
-217
-163
-119
-76
-27
15
31
16
-14
-42
-93
-215
-414
-590
-633
-532
-367
-222
-138
-93
-34
59
164
248
301
335
370
425
495
564
608
610
591
573
580
596
605
589
556
507
455
401
337
281
229
183
148
110
64
23
10
12
11
-6
-32
-50
-53
-49
-48
-51
-54
-50
-41
-29
-20
-15
-15
-15
-16
-16
-21
-30
-41
-54
-64
-72
-80
-93
-116
-144
-177
-217
-255
-289
-319
-345
-366
-380
-386
-382
-374
-358
-342
-323
-302
-289
-279
-273
-271
-272
-280
-290
-300
-314
-319
-327
-327
-324
-323
-319
-317
-316
-315
-314
-311
-309
-305
-304
-304
-308
-317
-323
-334
-352
-370
-391
-414
-438
-458
-472
-485
-490
-493
-496
-502
-508
-515
-527
-534
-541
-549
-550
-551
-544
-530
-514
-502
-487
-477
-470
-463
-457
-451
-442
-433
-423
-407
-391
-365
-336
-317
-298
-287
-284
-276
-279
-288
-298
-310
-323
-338
-351
-368
-375
-377
-374
-358
-337
-310
-282
-245
-207
-161
-115
-74
-34
7
46
81
116
151
185
216
249
279
308
345
377
413
449
478
505
522
539
549
558
560
554
553
545
533
508
473
445
414
393
376
364
352
339
324
315
305
301
300
297
293
288
278
269
271
283
297
320
345
369
403
434
469
505
537
564
593
617
638
664
688
716
735
746
763
787
814
839
866
890
920
948
974
1002
1028
1045
1069
1095
1124
1146
1159
1158
1141
1106
1062
1024
993
967
943
919
886
856
825
792
766
746
726
702
680
655
625
599
569
543
513
485
455
423
388
346
297
251
204
153
93
24
-58
-145
-244
-342
-443
-549
-652
-756
-860
-959
-1056
-1155
-1244
-1328
-1403
-1466
-1520
-1557
-1584
-1600
-1606
-1604
-1595
-1576
-1550
-1518
-1480
-1444
-1401
-1362
-1321
-1281
-1246
-1215
-1189
-1170
-1144
-1089
-1010
-916
-828
-753
-687
-627
-559
-488
-419
-356
-299
-250
-212
-179
-156
-143
-140
-140
-141
-145
-142
-139
-132
-123
-114
-106
-97
-86
-79
-79
-80
-83
-87
-93
-96
-102
-104
-100
-89
-71
-55
-37
-13
17
50
84
115
151
185
216
246
274
302
319
329
334
333
331
320
306
293
279
262
247
227
209
199
188
185
180
171
159
141
110
74
39
-3
-49
-102
-161
-217
-267
-319
-373
-423
-466
-501
-524
-546
-562
-577
-595
-604
-610
-609
-601
-590
-576
-564
-547
-528
-505
-473
-441
-409
-378
-344
-304
-261
-211
-161
-105
-49
17
83
146
218
283
350
416
481
543
617
691
759
823
884
946
1010
1085
1160
1242
1342
1436
1475
1480
1509
1582
1703
1850
2005
2184
2367
2516
2606
2657
2721
2916
3272
3232
2717
2217
1734
1169
546
-153
-893
-1612
-2292
-2858
-3253
-3508
-3667
-3749
-3758
-3689
-3548
-3361
-3151
-2927
-2702
-2452
-2172
-1911
-1662
-1420
-1189
-980
-834
-839
-1117
-1603
-1846
-1385
-275
1048
2175
2870
3175
3272
3226
3111
3032
3052
3105
3099
3103
3214
3429
3677
3903
3988
3783
3327
2796
2328
1982
1746
1559
1348
1092
806
512
236
-15
-214
-334
-387
-400
-402
-425
-477
-560
-657
-727
-739
-729
-739
-781
-844
-904
-930
-933
-941
-957
-983
-1005
-1013
-999
-978
-951
-924
-901
-872
-846
-817
-785
-759
-730
-704
-683
-661
-641
-616
-592
-567
-532
-493
-446
-394
-343
-295
-246
-210
-180
-154
-127
-104
-88
-80
-80
-82
-86
-94
-108
-135
-175
-226
-289
-361
-443
-530
-621
-710
-790
-864
-927
-976
-1017
-1039
-1051
-1051
-1042
-1018
-996
-969
-940
-912
-869
-823
-775
-719
-667
-614
-561
-516
-476
-433
-391
-348
-307
-266
-229
-193
-161
-124
-86
-51
-14
23
57
92
122
147
169
189
206
223
242
255
270
284
296
312
324
333
343
351
351
353
349
343
334
327
320
309
300
289
282
272
266
261
255
250
246
223
185
176
199
233
262
282
291
287
261
231
223
253
306
358
392
414
427
446
473
502
523
545
562
579
601
621
634
642
644
642
638
635
636
655
669
676
674
663
