0,0
1729,2317
1831,2449
1854,2484
1862,2530
1933,2662
2045,2711
2101,2729
2160,2907
2245,3036
2339,3140
2303,3157
2350,3280
2485,3442
2536,3444
2629,3610
2795,3842
2953,3984
3034,4201
3141,4469
3342,4650
3428,4854
3498,5034
3773,5323
3881,5449
3968,5598
4110,5854
4252,6038
4294,6103
4295,6259
4441,6424
4549,6599
4629,6731
4806,7011
5053,7224
5079,7370
5179,7563
5254,7723
5279,7666
5191,7661
5206,7643
5156,7460
5106,7350
4916,7227
4858,7065
4743,6894
4619,6718
4506,6617
4580,6610
4564,6547
4594,6667
4681,6814
4793,6978
4907,7128
4985,7387
5211,7655
5461,7941
5633,8241
5850,8603
6124,8995
6233,9214
6412,9450
6602,9786
6844,10058
7065,10359
7262,10688
7502,11144
7738,11384
7920,11801
8148,12174
8578,12720
8970,13256
9287,13779
9792,14512
10224,15286
10777,15991
11320,16954
12119,18108
13074,19520
14126,21057
15049,22565
16103,24148
17113,25515
18025,26937
18874,28214
19847,29628
20752,30906
21470,31993
22269,33216
23068,34450
24044,35773
25155,37501
26603,39664
28521,42462
30895,46099
34132,50778
38635,57420
44701,66201
52015,76455
59788,86641
66570,94562
71250,97819
71617,94095
78513,100822
85873,109353
88509,112443
89751,113718
90582,114611
91319,115244
92102,115912
92702,116468
93232,116818
93826,117176
94325,117404
94955,117679
95640,117915
96408,118236
97295,118576
98185,119060
98896,119565
99955,120088
100918,120669
101817,121127
102586,121613
103218,122018
103823,122348
104292,122631
104688,122868
105042,123068
105330,123251
105552,123367
105816,123506
106015,123587
106168,123671
106315,123762
106448,123790
106575,123854
106684,123914
106817,123925
106867,124007
106945,123963
107099,124064
107132,124072
107202,124086
107290,124159
107354,124146
107442,124205
107496,124201
107587,124252
107645,124231
107685,124265
107757,124294
107762,124291
107840,124253
107820,124253
107887,124237
107927,124256
107982,124214
108046,124228
108032,124239
108103,124194
108155,124229
108189,124169
108268,124204
108259,124198
108368,124185
108374,124203
108430,124166
108467,124162
108504,124157
108589,124158
108564,124150
108623,124132
108625,124165
108644,124102
108678,124131
108707,124111
108771,124154
108752,124121
108777,124082
108788,124105
108816,124110
108886,124085
108900,124106
108959,124144
108977,124137
109047,124175
109085,124164
109144,124174
109215,124216
109305,124236
109327,124253
109420,124247
109478,124317
109483,124298
109550,124303
109606,124348
109665,124331
109733,124366
109769,124371
110642,124660
110648,124636
110673,124658
110723,124653
110777,124678
110822,124718
110845,124705
110940,124710
110982,124748
111294,124823
111316,124857
111306,124827
111341,124831
111321,124833
111334,124839
111341,124821
111317,124840
111341,124809
111341,124813
111302,124781
111370,124811
111345,124823
111352,124778
111354,124801
111348,124760
111367,124769
111169,124598
111187,124632
111210,124615
111201,124603
111252,124649
111251,124625
111241,124630
111247,124607
111315,124587
111308,124599
111301,124605
111278,124557
111314,124559
111326,124600
111256,124532
111284,124525
111266,124572
111270,124507
111249,124529
111172,124490
111183,124452
111077,124462
111011,124349
109280,123381
109292,123374
109251,123377
109224,123351
109147,123304
109136,123321
109037,123211
109075,123235
109036,123252
109050,123249
108999,123220
108989,123216
108997,123218
109007,123203
109025,123200
108986,123213
109000,123177
108971,123216
108957,123155
108993,123178
108923,123126
108950,123150
108942,123160
108944,123173
108933,123141
108995,123211
108993,123189
108967,123152
109016,123173
108957,123199
108983,123157
108969,123193
108946,123109
108932,123125
108917,123125
108909,123104
108882,123124
108851,123060
108885,123081
108852,123070
108842,123056
108810,123046
108810,123042
108779,123041
108724,123008
108751,122983
108746,123005
108650,122962
108682,122959
108650,122965
108617,122916
108597,122921
108536,122889
108547,122876
108501,122887
108459,122815
108454,122847
108425,122836
108388,122818
108384,122789
108361,122816
108329,122778
108381,122791
108302,122756
108342,122721
108332,122765
108335,122729
108331,122771
108320,122722
108365,122732
108353,122754
108337,122731
108328,122766
108331,122751
108357,122774
108342,122724
108347,122756
108319,122767
108341,122697
108404,122751
108349,122753
108358,122739
108371,122760
108336,122730
108382,122748
108329,122738
108387,122730
108331,122773
108332,122696
108386,122760
108349,122740
108369,122733
108341,122690
108378,122727
108343,122732
108373,122723
108352,122750
108363,122721
108408,122745
108354,122722
108383,122725
108374,122750
108411,122683
108374,122748
108398,122704
108449,122731
108389,122742
108415,122690
108432,122722
108439,122716
108484,122719
108485,122753
108465,122730
108513,122728
108480,122755
108496,122736
108518,122793
108513,122741
108499,122748
108552,122746
108532,122787
108479,122725
108541,122771
108498,122747
108547,122733
108548,122757
108534,122736
108541,122750
108555,122759
108577,122730
108619,122777
108599,122784
108629,122738
108648,122799
108664,122770
108688,122795
108676,122781
108726,122790
108719,122811
108741,122786
108764,122833
108762,122803
108758,122822
108775,122826
108784,122823
108810,122840
108825,122852
108824,122832
108867,122813
108831,122860
108852,122817
108927,122871
108912,122853
108940,122844
108939,122898
108979,122874
109023,122907
109012,122878
109073,122901
109081,122940
109113,122935
109121,122945
109163,122941
109197,122953
109188,122987
109199,122946
109277,123012
109234,122971
109281,122981
109261,123007
109321,123016
109304,123010
109311,122990
109336,123018
109335,123039
109362,123006
109381,123039
109401,123040
109413,123036
109410,123076
109429,123068
109476,123079
109495,123061
109495,123102
109525,123061
109597,123090
109546,123078
109607,123099
109627,123151
109668,123093
109703,123162
109698,123128
109783,123162
109755,123185
109824,123194
109871,123209
109909,123220
109914,123224
109970,123224
109982,123304
110020,123269
110060,123308
110061,123279
110162,123339
110143,123330
110187,123329
110214,123366
110224,123357
110281,123374
110273,123374
110309,123369
110325,123390
110312,123391
110338,123425
110332,123421
110363,123379
110325,123358
110319,123359
110245,123307
110189,123304
110138,123264
110057,123233
109942,123165
109859,123078
109770,123047
109645,122998
109575,122934
109460,122908
109352,122830
109304,122811
109223,122768
109164,122716
109054,122667
109005,122659
108937,122610
108910,122585
108836,122530
108826,122525
108754,122533
108723,122476
108717,122497
108671,122437
108654,122444
108627,122439
108641,122422
108592,122451
108609,122397
108591,122430
108620,122397
108640,122406
108595,122407
108643,122404
108625,122428
108647,122379
108658,122425
108629,122383
108673,122409
108657,122438
108690,122404
108672,122440
108659,122365
108690,122399
108671,122414
108687,122400
108695,122376
108685,122401
108695,122378
108681,122391
108701,122368
108708,122410
108696,122351
108674,122374
108679,122425
108694,122362
108724,122394
108698,122399
108721,122366
108726,122417
108725,122382
108796,122416
108742,122421
108775,122432
108780,122401
108774,122417
108817,122410
108794,122439
108777,122410
108824,122441
108781,122414
108784,122414
108757,122414
108759,122372
108744,122403
108714,122333
108735,122354
108665,122325
108677,122334
108655,122325
108650,122313
108629,122308
108599,122283
108578,122273
108611,122280
108576,122264
108576,122240
108538,122272
108543,122216
108568,122247
108522,122233
108555,122226
108543,122255
108536,122205
108573,122260
108527,122206
108574,122234
108561,122234
108599,122260
108602,122267
108598,122274
108629,122277
108616,122238
108653,122256
108664,122284
108675,122252
108703,122297
108664,122254
108716,122263
108720,122302
108728,122277
108757,122287
108721,122267
108757,122279
108753,122286
108742,122326
108785,122294
108761,122309
108795,122300
108755,122333
108790,122313
108806,122320
108763,122268
108779,122319
108763,122305
108746,122323
108760,122269
108770,122306
108731,122298
108735,122275
108756,122303
108728,122289
108706,122283
108731,122270
108743,122265
108703,122280
108706,122250
108730,122271
108676,122276
108709,122244
108703,122279
108676,122226
108692,122266
108668,122230
108707,122226
108672,122256
108655,122211
108682,122239
108662,122225
108672,122237
108651,122228
108667,122210
108703,122200
108689,122223
108705,122239
108680,122221
108730,122216
108729,122256
108716,122229
108775,122243
108752,122236
108795,122218
108780,122262
108778,122229
108851,122250
108848,122294
108867,122268
108874,122273
108908,122273
108906,122266
108923,122324
108916,122269
108946,122292
108953,122318
109012,122288
108965,122296
109012,122303
109012,122327
109022,122299
109074,122338
109067,122340
109077,122310
109129,122368
109130,122367
109153,122358
109179,122382
109180,122405
109200,122393
109196,122376
109249,122442
109245,122423
109293,122411
109270,122443
109310,122411
109311,122464
109321,122426
109345,122420
109355,122474
109371,122425
109405,122503
109419,122451
109431,122475
109443,122477
109470,122484
109507,122500
109517,122515
109533,122482
109558,122531
109558,122547
109607,122532
109624,122570
109617,122532
109667,122575
109664,122581
109696,122576
109729,122624
109718,122555
109749,122604
109779,122588
109776,122591
109820,122604
109810,122607
109837,122659
109840,122604
109884,122648
109884,122645
109952,122666
109924,122668
109959,122699
109980,122677
110057,122696
110045,122729
110052,122693
110081,122753
110112,122738
110107,122721
110158,122774
110141,122733
110147,122722
110161,122741
110086,122712
110062,122676
110026,122668
109985,122608
109873,122594
109765,122499
109722,122485
109564,122426
109506,122344
109415,122301
109350,122278
109238,122218
109179,122173
109120,122116
109061,122097
108966,122054
108941,122033
108908,122012
108839,121962
108834,121960
108773,121912
108792,121943
108753,121941
108730,121877
108730,121919
108693,121880
108703,121899
108687,121895
108754,121867
108726,121883
108703,121903
108745,121890
108735,121884
108780,121902
108769,121876
108773,121910
108782,121915
108810,121918
108848,121914
108807,121929
108859,121933
108855,121955
108870,121938
108854,121953
108866,121931
108873,121951
108900,121947
108881,121935
108921,121964
108898,121945
108918,121934
108877,121961
108957,121978
108927,121976
108970,121978
108959,121952
108991,121967
109039,122018
109056,122009
109061,122043
109069,122015
109111,122029
109146,122053
109140,122045
109148,122061
109151,122068
109192,122077
109180,122114
109188,122061
109231,122083
109175,122054
109194,122043
109195,122070
109183,122044
109185,122069
109125,121999
109188,122019
109120,122053
109136,122007
109152,122022
109116,121981
109107,121975
109073,122026
109083,121969
109065,121963
109016,121975
109046,121965
109052,121932
109018,121955
109034,121898
109036,121944
109014,121895
109052,121904
109035,121953
109029,121907
109051,121932
109042,121916
109061,121921
109078,121936
109080,121938
109058,121924
109091,121940
109105,121961
109091,121943
109101,121923
109109,121983
109111,121949
109162,121969
109135,121945
109146,121948
109135,121987
109157,121987
109164,121965
109206,121960
109215,121999
109228,121988
109258,121985
109237,122021
109254,122009
109257,122018
109284,122050
109306,121997
109342,122057
109311,122019
109333,122021
109339,122061
109358,122025
109361,122075
109343,122022
109417,122060
109390,122066
109394,122041
109434,122065
109426,122059
109453,122075
109413,122085
109453,122062
109476,122074
109494,122098
109465,122068
109533,122082
109483,122097
109537,122078
109541,122115
109525,122080
109591,122106
109554,122114
109551,122066
109578,122122
109545,122097
109578,122095
109597,122136
109563,122069
109560,122106
109604,122120
109587,122077
109596,122130
109591,122084
109613,122091
109595,122139
109596,122083
109615,122093
109596,122089
109592,122082
109624,122087
109616,122109
109612,122077
109619,122122
109622,122107
109592,122096
109635,122120
109591,122089
109645,122089
109605,122114
109607,122069
109666,122106
109621,122120
109632,122083
109650,122106
109630,122068
109651,122092
109631,122082
109669,122118
109625,122083
109655,122086
109653,122064
109637,122093
109614,122091
109625,122081
109649,122086
109627,122089
109647,122062
109655,122086
109635,122081
109678,122102
109667,122111
109699,122090
109694,122112
109689,122064
109702,122097
109704,122110
109722,122100
109733,122085
109753,122110
109722,122130
109791,122100
109800,122131
109787,122100
109849,122146
109819,122165
109819,122152
109854,122156
109828,122119
109857,122112
109864,122169
109874,122133
109891,122140
109863,122157
109904,122145
109904,122150
109924,122166
109928,122148
109944,122181
109902,122166
109950,122137
109963,122182
109959,122159
109984,122205
109974,122182
110022,122169
110010,122197
110016,122168
110054,122208
110039,122220
110075,122201
110082,122220
110119,122231
110117,122260
110120,122234
110152,122228
110128,122269
110184,122266
110174,122246
110190,122236
110186,122280
110200,122256
110248,122279
110231,122274
110243,122263
110268,122305
110280,122260
110282,122284
110250,122284
110276,122283
110257,122263
110250,122258
110240,122273
110164,122201
110121,122165
110039,122140
109977,122079
109881,122060
109787,121994
109668,121949
109574,121860
109530,121818
109411,121801
109302,121711
109254,121690
109166,121648
109084,121604
109021,121556
108964,121516
108922,121501
108870,121459
108815,121466
108753,121402
108758,121416
108682,121407
108685,121351
108682,121387
108629,121331
108651,121371
108604,121322
108663,121349
108641,121340
108634,121360
108626,121332
108624,121330
108606,121320
108659,121334
108639,121309
108674,121334
108630,121341
108652,121318
108692,121344
108625,121324
108661,121328
108655,121367
108673,121305
108673,121365
108653,121305
108686,121335
108656,121346
108671,121319
108669,121321
108670,121290
108678,121337
108670,121308
108710,121334
108672,121300
108699,121323
108663,121302
108704,121324
108696,121335
108705,121294
108713,121357
108692,121349
108779,121339
108768,121393
108769,121371
108813,121407
108822,121413
108844,121408
108837,121416
108873,121389
108834,121419
108830,121386
108892,121428
108841,121376
108865,121374
108824,121400
108855,121347
108829,121395
108790,121336
108794,121356
108822,121324
108799,121346
108744,121305
108750,121325
108711,121275
108721,121303
108670,121270
108656,121280
108666,121251
108643,121253
108599,121226
108604,121198
108574,121269
108564,121188
108595,121240
108540,121208
108558,121169
108546,121214
108524,121166
108556,121193
108551,121181
108532,121182
108563,121207
108583,121204
108561,121186
108601,121201
108569,121216
108613,121242
108591,121227
108647,121209
108627,121244
108630,121200
108689,121248
108645,121251
108698,121211
108665,121274
108693,121229
108727,121268
108723,121266
108736,121267
108745,121266
108768,121248
108734,121276
108742,121232
108816,121297
108786,121276
108818,121275
108793,121266
108852,121271
108834,121303
108831,121305
108852,121279
108867,121314
108867,121298
108926,121323
108929,121317
108921,121306
108944,121323
108920,121313
108941,121324
108944,121319
108999,121359
108973,121297
108988,121317
108960,121343
108976,121313
108998,121343
108978,121299
109016,121318
108985,121321
108992,121314
109022,121355
109012,121322
109002,121343
109038,121342
109015,121327
109029,121356
109024,121315
109056,121323
109051,121353
109065,121309
109066,121327
109032,121327
109063,121313
109049,121352
109053,121306
109088,121355
109054,121347
109076,121308
109074,121330
109087,121308
109118,121356
109100,121334
109122,121349
109121,121372
109099,121342
109144,121341
109134,121353
109145,121326
109131,121364
109136,121348
109159,121348
109193,121351
109180,121377
109187,121346
109197,121365
109188,121360
109220,121341
109202,121367
109248,121364
109235,121382
109220,121357
109257,121386
109210,121387
109268,121358
109260,121420
109268,121358
109299,121382
109274,121396
109322,121400
109320,121418
109309,121400
109345,121441
109323,121409
109331,121403
109352,121412
109371,121420
109349,121427
109337,121432
109334,121376
109398,121401
109333,121427
109333,121386
109357,121412
109332,121393
109366,121398
109326,121405
109353,121403
109334,121414
109340,121386
109385,121410
109355,121398
109372,121391
109355,121407
109360,121366
109381,121433
109354,121385
109360,121415
109345,121394
109381,121406
109364,121401
109384,121373
109382,121416
109367,121383
109396,121399
109386,121411
109378,121380
109444,121400
109397,121421
109413,121395
109383,121408
109416,121435
109436,121399
109465,121391
109422,121435
109431,121404
109479,121445
109476,121426
109479,121407
109499,121435
109493,121407
109533,121462
109517,121436
109601,121444
109575,121493
109584,121456
109596,121475
109624,121472
109629,121479
109645,121471
109638,121484
109640,121480
109659,121520
109626,121471
109637,121455
109622,121468
109605,121419
109512,121432
109440,121332
109410,121331
109291,121288
109217,121218
109120,121195
109025,121095
108945,121064
108811,121021
108739,120963
108666,120910
108550,120859
108469,120821
108412,120788
108294,120743
108282,120715
108203,120672
108115,120646
108104,120630
108032,120597
107981,120572
107970,120546
107926,120525
107930,120533
107896,120536
107880,120499
107881,120495
107854,120500
107861,120503
107856,120490
107867,120507
107915,120510
107881,120513
107928,120516
107924,120501
107958,120516
107942,120508
107976,120536
108017,120523
108004,120568
108004,120547
108019,120548
108010,120550
108065,120564
108033,120550
108069,120533
108053,120598
108043,120537
108096,120602
108049,120551
108086,120552
108075,120593
108109,120558
108126,120611
108109,120578
108171,120588
108150,120621
108175,120619
108212,120647
108234,120661
108229,120655
108280,120678
108320,120691
108317,120713
108328,120690
108380,120724
108371,120722
108407,120706
108437,120762
108402,120710
108423,120725
108392,120751
108418,120718
108417,120735
108410,120711
108430,120724
108391,120722
108417,120710
108421,120724
108416,120739
108388,120676
108428,120704
108405,120718
108446,120687
108390,120735
108376,120669
108425,120712
108373,120689
108404,120676
108391,120680
108374,120677
108406,120696
108414,120669
108390,120678
108421,120676
108443,120692
108447,120738
108450,120699
108516,120752
108481,120724
108524,120737
108528,120778
108558,120754
108586,120809
108584,120789
108665,120786
108634,120844
108664,120818
108710,120850
108714,120851
108729,120878
108729,120851
108747,120844
108768,120847
108784,120876
108769,120857
108801,120878
108804,120912
108820,120886
108837,120904
108831,120899
108870,120912
108851,120933
108880,120916
108921,120940
108901,120933
108926,120953
108962,120934
108949,120972
108974,120960
109005,120975
109002,120986
109043,120965
109048,121025
109045,120992
109128,121029
109092,121037
109152,121014
109171,121041
109171,121039
109181,121047
109234,121066
109245,121079
109237,121070
109251,121069
109306,121101
109293,121099
109305,121084
109330,121076
109326,121110
109300,121090
109353,121134
109369,121133
109377,121113
109415,121143
109371,121097
109385,121135
109407,121133
109442,121128
109412,121154
109442,121125
109444,121145
109476,121133
109483,121167
109454,121147
109479,121172
109475,121148
109526,121178
109521,121182
109520,121153
109544,121196
109527,121206
109579,121197
109555,121196
109572,121185
109595,121219
109598,121210
109626,121201
109600,121221
109659,121234
109634,121185
109677,121239
109647,121220
109682,121193
109695,121262
109674,121200
109712,121242
109686,121229
109692,121247
109730,121239
109705,121254
109740,121240
109746,121299
109751,121252
109785,121266
109799,121289
109824,121307
109778,121318
109814,121286
109872,121315
109838,121302
109871,121299
109906,121353
109932,121307
109960,121359
109918,121340
109978,121352
109951,121387
109983,121349
110040,121376
109998,121375
110040,121369
110062,121391
110039,121380
110060,121406
110127,121416
110100,121446
110119,121385
110148,121444
110134,121405
110184,121427
110204,121476
110208,121446
110267,121476
110243,121464
110308,121467
110328,121529
110332,121475
110356,121519
110373,121512
110412,121532
110445,121571
110447,121529
110486,121565
110501,121583
110513,121573
110541,121595
110563,121591
110572,121619
110614,121603
110687,121651
110659,121695
110675,121640
110741,121703
110719,121695
110743,121670
110748,121714
110734,121698
110747,121683
110697,121636
110654,121662
110562,121555
110517,121550
110374,121502
110249,121361
110095,121305
109931,121196
109785,121139
109596,121037
109479,120940
109341,120933
109205,120809
109113,120812
109012,120720
110447,121529
108867,120645
108815,120600
108758,120605
108682,120539
108673,120554
108612,120531
108584,120473
108579,120521
108535,120492
108578,120470
108519,120500
108538,120457
108528,120491
108517,120467
108539,120494
108522,120479
108548,120465
108540,120470
108566,120475
108540,120494
108569,120457
108606,120509
108617,120491
108614,120499
108583,120501
108615,120491
108660,120541
108629,120522
108660,120524
108669,120554
108667,120520
108702,120558
108651,120516
108682,120539
108692,120567
108663,120532
108707,120534
108716,120527
108719,120582
108732,120523
108735,120560
108722,120531
108762,120594
108727,120592
108794,120557
108796,120627
108777,120564
108804,120606
108836,120600
108832,120619
108843,120630
108871,120601
108860,120629
108864,120610
108836,120592
108886,120578
108831,120630
108845,120592
108865,120599
108809,120562
108838,120567
108787,120591
108801,120532
108797,120582
108758,120526
108778,120529
108732,120538
108721,120503
108711,120511
108715,120487
108700,120502
108637,120463
108653,120474
108676,120482
108659,120484
108621,120473
108653,120450
108656,120481
108635,120439
108644,120479
108647,120439
108682,120448
108681,120475
108676,120454
108726,120500
108724,120491
108708,120524
108735,120503
108790,120499
108785,120542
108781,120525
108849,120523
108827,120555
108841,120512
108875,120590
108862,120550
108883,120577
108902,120590
108931,120560
108919,120603
108945,120581
108988,120604
108973,120601
108981,120595
109003,120634
109039,120622
109041,120621
109082,120668
109061,120641
109097,120669
109124,120699
109143,120663
109156,120721
109123,120676
109204,120702
109192,120719
109194,120695
109241,120739
109217,120682
109254,120734
109272,120770
109286,120726
109291,120730
109315,120744
109331,120754
109317,120733
109377,120776
109366,120773
109414,120771
109417,120796
109418,120783
109446,120820
109451,120842
109508,120810
109512,120857
109522,120809
109567,120860
109586,120875
109588,120847
109622,120893
109611,120892
109661,120883
109613,120941
109652,120873
109703,120922
109668,120900
109693,120895
109704,120908
109708,120942
109743,120919
109752,120968
109757,120897
109787,120947
109777,120944
109801,120965
109807,120966
109812,120994
109826,120954
109878,120988
109857,121001
109901,120977
109931,121036
109906,120994
109965,121023
109952,121043
110014,121041
110006,121060
110023,121040
110067,121112
110095,121086
110114,121106
110151,121123
110164,121163
110193,121123
110229,121145
110244,121158
110258,121180
110284,121159
110332,121204
110304,121203
110347,121195
110355,121223
110341,121204
110373,121248
110374,121231
110415,121206
110392,121275
110388,121233
110459,121255
110456,121265
110452,121276
110516,121258
110486,121311
110506,121274
110532,121317
110537,121276
110575,121315
110545,121298
110610,121359
110596,121330
110615,121372
110608,121340
110650,121329
110665,121374
110657,121341
110676,121370
110678,121363
110713,121387
110696,121386
110751,121392
110701,121401
110734,121375
110768,121414
110753,121408
110765,121405
110772,121419
110794,121394
110800,121459
110791,121397
110853,121426
110805,121420
110845,121406
110862,121453
110860,121453
110876,121465
110877,121458
110901,121452
110883,121471
110911,121448
110903,121474
110909,121462
110916,121477
110952,121497
110950,121490
110987,121473
110944,121506
110987,121489
110963,121505
110997,121479
111000,121511
111000,121483
110980,121497
111020,121496
110994,121463
110957,121477
110935,121438
110853,121402
110779,121356
110663,121307
110533,121246
110422,121146
110261,121060
110066,120944
109934,120864
109689,120779
109542,120660
109421,120613
109271,120511
109153,120456
109064,120378
108956,120364
108924,120330
108834,120293
108759,120241
108741,120211
108664,120238
108626,120196
108660,120216
108587,120184
108603,120159
108563,120156
108559,120148
108561,120191
108542,120161
108575,120169
108562,120160
108585,120148
108593,120149
108652,120191
108578,120204
108632,120156
108674,120221
108639,120167
108674,120208
108679,120226
108721,120204
108739,120239
108709,120202
108764,120228
108723,120268
108730,120222
108776,120252
108756,120251
108745,120253
108767,120235
108749,120267
108744,120229
108746,120271
108730,120231
108762,120242
108752,120251
108778,120240
108800,120276
108787,120257
108844,120273
108840,120299
108876,120292
108891,120328
108904,120310
108949,120331
108968,120346
108971,120373
109029,120374
109021,120394
109029,120361
109063,120412
109029,120373
109088,120381
109041,120406
109047,120346
109046,120383
109008,120321
108990,120370
109010,120349
108958,120306
108953,120314
108948,120321
108901,120302
108933,120305
108914,120280
108914,120295
108876,120246
108891,120265
108854,120279
108876,120236
108833,120275
108840,120215
108859,120259
108814,120236
108839,120238
108826,120263
108835,120225
108844,120264
108843,120251
108861,120265
108874,120265
108856,120239
108880,120281
108924,120289
108964,120316
108965,120324
109009,120294
109018,120364
109019,120340
109081,120357
109059,120403
109087,120341
109145,120389
109126,120372
109168,120397
109188,120410
109205,120455
109176,120433
109248,120439
109223,120453
109235,120435
109299,120470
109261,120454
109292,120456
109277,120450
109328,120450
109299,120511
109311,120470
109368,120492
109331,120474
109370,120494
109385,120486
109339,120509
109338,120494
109351,120509
109365,120492
109351,120508
109346,120451
109385,120521
109340,120480
109398,120475
109357,120480
109397,120450
109391,120520
109362,120476
109410,120500
109388,120508
109401,120492
109405,120525
109418,120473
109413,120492
109417,120490
109394,120488
109409,120480
109418,120488
109406,120504
109411,120493
109452,120488
109380,120489
109432,120480
109444,120531
109443,120460
109448,120498
109417,120493
109478,120513
109453,120534
109466,120489
109496,120523
109482,120516
109490,120556
109557,120538
109536,120537
109583,120566
109548,120539
109589,120558
109570,120581
109584,120559
109545,120540
109622,120578
109560,120556
109605,120562
109606,120604
109586,120567
109625,120579
109604,120590
109623,120584
109631,120593
109658,120622
109642,120613
109630,120587
109714,120593
109675,120645
109683,120586
109739,120660
109717,120643
109775,120645
109745,120666
109774,120628
109794,120687
109786,120652
109849,120689
109840,120709
109845,120684
109866,120704
109871,120706
109921,120703
109889,120704
109941,120746
109925,120754
109950,120713
109987,120784
109969,120748
110006,120757
109987,120740
110058,120748
110041,120800
110034,120750
110086,120795
110064,120794
110102,120809
110103,120836
110125,120821
110133,120818
110139,120817
110187,120820
110184,120884
110216,120824
110269,120905
110250,120843
110296,120875
110327,120906
110314,120936
110290,120909
110356,120950
110316,120936
110396,120928
110393,120934
110386,120962
110428,120962
110425,120982
110408,120947
110463,120995
110428,120993
110463,120976
110506,121024
110480,120975
110499,121005
110474,120993
110531,121008
110509,121047
110515,121002
110559,121035
110531,121002
110567,121022
110555,121033
110570,121019
110549,121032
110518,120992
110533,121010
110471,121009
110443,120920
110381,120933
110261,120835
110211,120796
110044,120750
109920,120600
109787,120573
109578,120458
109475,120403
109313,120333
109201,120236
109076,120169
108956,120144
108887,120085
108753,120033
108726,120024
108672,119952
108654,119982
108595,119927
108559,119914
108545,119920
108495,119904
108496,119872
108509,119916
108463,119887
108500,119898
108499,119903
108527,119886
108510,119917
108556,119925
108529,119886
108568,119907
108579,119922
108608,119964
108608,119918
108634,119994
108633,119969
108676,119927
108674,120029
108674,119970
108745,120043
108712,120001
108773,120022
108798,120026
108774,120066
108809,120037
108822,120035
108827,120029
108841,120057
108867,120077
108850,120066
108863,120053
108877,120114
108860,120073
108925,120077
108884,120118
108907,120072
108935,120119
108928,120111
108974,120130
108983,120136
109040,120150
109045,120165
109036,120146
109101,120204
109109,120176
109103,120201
109136,120205
109165,120215
109141,120197
109133,120223
109099,120190
109137,120193
109090,120182
109103,120148
109066,120179
109026,120144
109031,120119
108998,120132
108967,120079
108929,120063
108888,120069
108890,120066
108826,120035
108832,119987
108776,120020
108755,119954
108753,120009
108703,119954
108712,119938
108698,119985
108673,119916
108718,119979
108682,119948
108679,119915
108713,119924
108696,119958
108719,119958
108733,119975
108771,119967
108755,119994
108770,119965
108846,120009
108812,120034
108879,120010
108888,120073
108915,120020
108975,120071
108987,120096
109059,120101
109059,120153
109093,120113
109161,120184
109161,120164
109206,120175
109236,120202
109285,120212
109287,120240
109324,120241
109358,120284
109355,120262
109415,120273
109414,120335
109437,120301
109509,120329
109453,120320
109501,120309
109520,120354
109507,120332
109553,120348
109554,120375
109582,120367
109575,120371
109633,120396
109619,120393
109648,120394
109727,120464
109715,120405
109750,120452
109745,120440
109786,120452
109768,120508
109832,120489
109795,120500
109828,120466
109889,120500
109838,120524
109856,120494
109873,120523
109869,120508
109898,120503
109909,120565
109900,120525
109949,120526
109935,120561
109947,120527
109985,120565
109952,120539
109999,120540
109998,120614
110004,120578
110052,120599
110018,120575
110061,120575
110041,120620
110060,120588
110065,120605
110101,120620
110135,120604
110057,120623
110104,120597
110124,120634
110113,120611
110158,120591
110156,120657
110123,120616
110196,120661
110168,120665
110189,120619
110223,120681
110187,120631
110229,120661
110219,120664
110266,120691
110261,120668
110255,120686
110286,120713
110281,120685
110305,120711
110285,120688
110342,120685
110289,120713
110313,120712
110355,120715
110313,120720
110330,120698
110404,120762
110356,120718
110408,120741
110385,120752
110389,120750
110432,120753
110423,120770
110408,120758
110426,120758
110436,120771
110476,120754
110470,120777
110438,120735
110488,120786
110463,120776
110487,120776
110482,120795
110485,120732
110493,120792
110468,120779
110504,120790
110502,120783
110502,120789
110538,120781
110483,120772
110491,120758
110496,120751
110480,120771
110515,120755
110482,120780
110516,120775
110510,120790
110522,120778
110513,120773
110520,120804
110544,120775
110541,120780
110564,120796
110555,120791
110586,120820
110571,120790
110583,120801
110579,120797
110575,120814
110609,120800
110576,120794
110606,120818
110588,120804
110597,120788
110549,120780
110562,120780
110503,120752
110463,120719
110376,120701
110272,120577
110160,120542
110033,120451
109852,120356
109704,120279
109553,120179
109379,120143
109221,120026
109147,119987
108972,119915
108893,119848
108812,119826
108686,119758
108674,119731
108559,119700
108552,119664
108489,119672
108458,119622
108404,119610
108391,119625
108362,119593
108328,119615
108313,119546
108369,119585
108319,119593
108342,119563
108373,119602
108341,119581
108384,119583
108380,119628
108430,119588
108411,119653
108421,119599
108509,119654
108467,119669
108512,119666
108541,119673
108531,119695
108600,119686
108586,119719
108620,119684
108634,119728
108600,119732
108640,119737
108606,119728
108652,119732
108679,119753
108643,119712
108666,119771
108657,119767
108695,119733
108701,119775
108677,119743
108730,119777
108729,119775
108758,119818
108778,119812
108811,119805
108809,119842
108836,119817
108907,119877
108888,119864
108923,119877
108902,119872
108939,119875
108938,119907
108912,119864
108963,119910
108914,119856
108885,119848
108911,119868
108856,119823
108880,119835
108803,119802
108795,119775
108805,119822
108752,119755
108746,119756
108695,119744
108712,119715
108676,119736
108618,119667
108640,119710
108591,119660
108596,119654
108557,119696
108556,119642
108564,119657
108543,119631
108555,119673
108530,119616
108556,119635
108568,119643
108569,119650
108577,119673
108578,119674
108585,119663
108654,119692
108615,119714
108677,119687
108674,119748
108672,119719
108721,119747
108693,119731
108752,119745
108753,119746
108803,119764
108795,119795
108827,119757
108852,119813
108842,119782
108932,119830
108907,119815
108959,119825
108983,119877
109023,119872
109055,119931
109069,119892
109128,119919
109159,119907
109216,119966
109199,120014
109226,119970
109263,120025
109326,120016
109316,120046
109323,120030
109391,120024
109377,120083
109395,120058
109451,120111
109416,120066
109505,120088
109488,120121
109524,120095
109532,120147
109535,120122
109618,120157
109561,120172
109619,120196
109650,120180
109658,120199
109655,120209
109716,120232
109717,120222
109786,120225
109753,120263
109785,120232
109837,120281
109821,120277
109862,120266
109884,120318
109877,120283
109902,120304
109887,120298
109942,120296
109940,120331
109958,120326
109947,120334
109955,120318
109983,120340
109943,120335
110001,120332
109963,120364
109980,120311
109976,120371
109945,120312
109967,120351
109945,120336
109987,120365
109951,120339
109993,120322
109969,120379
109977,120322
109995,120361
110017,120355
110000,120375
110008,120359
110047,120362
110013,120386
110058,120338
110073,120402
110043,120363
110114,120383
110069,120430
110107,120392
110119,120443
110116,120382
110149,120409
110124,120397
110166,120429
110154,120447
110167,120437
110159,120443
110148,120460
110179,120426
110143,120438
110141,120425
110185,120411
110131,120438
110158,120390
110148,120444
110151,120411
110190,120436
110176,120459
110175,120416
110207,120462
110182,120425
110207,120456
110206,120465
110235,120470
110232,120461
110217,120461
110263,120443
110259,120520
110267,120451
110305,120502
110336,120476
110338,120505
110293,120510
110297,120478
110376,120516
110344,120522
110360,120481
110384,120531
110387,120514
110427,120507
110389,120510
110423,120553
110437,120524
110437,120578
110437,120513
110462,120573
110428,120580
110460,120547
110471,120604
110441,120549
110465,120579
110470,120569
110494,120576
110468,120590
110451,120526
110482,120568
110443,120573
110454,120545
110427,120541
110414,120513
110374,120523
110328,120471
110249,120460
110148,120370
110083,120340
109919,120259
109797,120135
109618,120106
109427,119960
109298,119892
109079,119804
108946,119694
108808,119667
108658,119586
108560,119493
108473,119475
108316,119400
108289,119360
108165,119352
108133,119281
108067,119295
107992,119224
107964,119226
107951,119193
107870,119207
107876,119158
107865,119188
107835,119171
107833,119131
107831,119174
107828,119147
107822,119180
107819,119149
107861,119149
107814,119159
107832,119147
107888,119200
107866,119166
107893,119182
107898,119201
107918,119157
107922,119227
107924,119208
107989,119212
107937,119218
107953,119219
107972,119194
107983,119220
107993,119228
108003,119231
107987,119224
108007,119242
107987,119234
108025,119210
108010,119255
108018,119247
108079,119254
108060,119267
108057,119234
108118,119291
108080,119274
108130,119305
108152,119313
108191,119272
108199,119343
108239,119364
108221,119343
108273,119357
108255,119386
108257,119356
108320,119394
108255,119340
108248,119342
108274,119351
108238,119362
108187,119326
108223,119318
108148,119331
108100,119256
108113,119278
108039,119246
108037,119237
108016,119227
107977,119218
107942,119224
107916,119159
107915,119211
107886,119155
107891,119155
107850,119180
107852,119117
107868,119160
107813,119100
107817,119137
107808,119123
107846,119095
107798,119119
107833,119101
107832,119109
107851,119140
107846,119121
107882,119114
107908,119154
107861,119133
107929,119163
107923,119191
107958,119165
107976,119185
107970,119165
108027,119190
108014,119246
108047,119190
108107,119268
108091,119223
108136,119256
108126,119286
108189,119294
108174,119286
108268,119325
108267,119337
108281,119332
108304,119345
108334,119327
108347,119389
108369,119362
108396,119400
108380,119389
108429,119386
108428,119440
108434,119404
108503,119415
108461,119437
108512,119407
108543,119441
108535,119440
108573,119460
108571,119461
108572,119467
108604,119495
108617,119503
108614,119464
108648,119521
108640,119466
108668,119524
108652,119521
108753,119513
108745,119538
108733,119563
108776,119540
108783,119570
108803,119559
108775,119569
108858,119577
108825,119622
108889,119616
108889,119641
108917,119591
108952,119642
108924,119656
109018,119664
109004,119718
109027,119686
109117,119746
109077,119715
109146,119740
109158,119761
109199,119752
109216,119797
109252,119794
109275,119810
109307,119845
109303,119828
109343,119841
109359,119831
109430,119894
109373,119878
109427,119877
109473,119919
109469,119904
109505,119929
109483,119953
109543,119914
109529,119973
109523,119936
109582,119957
109574,119957
109590,119950
109558,119995
109595,119953
109643,119973
109602,119952
109616,119961
109609,119989
109669,119979
109630,120012
109676,119989
109694,119983
109680,120031
109705,120010
109753,120032
109751,120046
109762,120042
109788,120058
109833,120087
109857,120082
109847,120089
109863,120121
109899,120069
109921,120156
109911,120117
109987,120139
109966,120173
109984,120141
110013,120183
110001,120168
110033,120175
110027,120195
110069,120153
110038,120193
110049,120187
110060,120175
110090,120173
110051,120190
110083,120190
110079,120206
110102,120203
110070,120197
110103,120221
110140,120221
110079,120210
110139,120217
110148,120230
110127,120217
110154,120239
110188,120245
110165,120238
110183,120258
110183,120249
110227,120247
110229,120280
110249,120290
110255,120271
110268,120277
110316,120305
110291,120301
110317,120302
110340,120316
110324,120333
110320,120316
110338,120310
110344,120325
110329,120336
110307,120281
110290,120301
110254,120278
110189,120206
110117,120199
110069,120167
109898,120081
109794,119997
109658,119931
109479,119815
109314,119747
109129,119657
108986,119530
108788,119501
108645,119383
108561,119334
108377,119245
108312,119193
108208,119153
108138,119135
108080,119110
107984,119059
107923,119059
107893,118996
107886,118991
107853,118973
107860,118963
107841,119011
107821,118962
107866,118972
107841,118987
107868,118971
107897,119034
107887,118996
107931,119002
107945,119024
107992,119024
108012,119054
108025,119080
108017,119081
108066,119101
108058,119094
108114,119123
108091,119119
108136,119089
108130,119148
108165,119128
108144,119148
108204,119141
108192,119200
108194,119145
108255,119160
108210,119190
108232,119176
108249,119183
108264,119160
108282,119195
108284,119232
108303,119203
108365,119241
108349,119237
108373,119212
108401,119274
108443,119244
108463,119311
108465,119288
108532,119326
108502,119297
108532,119335
108583,119351
108588,119358
108610,119363
108591,119327
108605,119353
108585,119369
108553,119341
108571,119314
108550,119350
108521,119304
108505,119295
108478,119267
108493,119239
108427,119281
108396,119203
108420,119251
108353,119211
108355,119170
108331,119216
108311,119175
108327,119186
108276,119168
108304,119139
108256,119193
108249,119104
108292,119177
108272,119146
108260,119133
108273,119131
108279,119158
108283,119131
108326,119175
108285,119183
108328,119154
108377,119197
108361,119175
108387,119233
108427,119245
108434,119209
108462,119259
108493,119273
108509,119287
108539,119271
108580,119350
108575,119300
108690,119366
108624,119366
108691,119367
108695,119386
108745,119364
108750,119446
108751,119422
108802,119417
108803,119432
108839,119439
108853,119460
108862,119444
108924,119490
108889,119487
108928,119475
108927,119494
108950,119480
108980,119524
108973,119492
109020,119495
109003,119546
109029,119520
109068,119560
109038,119520
109080,119543
109083,119564
109075,119538
109132,119592
109141,119575
109129,119559
109150,119567
109129,119591
109173,119628
109155,119612
109159,119590
109191,119628
109176,119626
109223,119587
109201,119631
109202,119602
109231,119642
109188,119627
109207,119615
109218,119609
109212,119585
109207,119648
109206,119590
109247,119644
109211,119602
109260,119623
109254,119638
109279,119621
109252,119637
109265,119626
109316,119663
109284,119632
109327,119666
109341,119642
109321,119690
109314,119667
109358,119693
109380,119703
109373,119671
109403,119702
109446,119707
109413,119734
109462,119709
109482,119766
109466,119735
109537,119754
109499,119789
109521,119724
109532,119786
109523,119754
109552,119806
109552,119786
109609,119773
109567,119784
109567,119783
109576,119800
109585,119785
109562,119819
109616,119783
109617,119829
109608,119790
109659,119819
109634,119855
109669,119803
109712,119836
109671,119848
109722,119839
109753,119877
109718,119840
109763,119854
109778,119884
109762,119889
109804,119906
109807,119876
109826,119906
109826,119897
109879,119913
109853,119954
109913,119911
109938,119961
109958,119953
109960,119998
110020,119996
110018,120019
110039,119998
110080,120041
110064,120013
110124,120056
110131,120033
110154,120080
110178,120092
110225,120098
110237,120129
110254,120113
110314,120152
110308,120181
110340,120150
110396,120196
110383,120181
110417,120203
110435,120235
110453,120213
110473,120253
110481,120225
110548,120266
110536,120249
110590,120289
110528,120295
110585,120291
110553,120300
110584,120285
110590,120320
110575,120288
110600,120300
110599,120311
110600,120263
110564,120298
110542,120245
110537,120248
110449,120227
110380,120133
110298,120111
110135,120021
109979,119928
109838,119861
109663,119731
109513,119652
109309,119584
109132,119459
109004,119419
108828,119277
108707,119235
108593,119151
108483,119126
108356,119103
108297,119018
108239,119035
108148,118968
108131,118942
108096,118931
108036,118933
107979,118890
108006,118911
107984,118892
107957,118922
107959,118864
107942,118871
107937,118859
107934,118880
107897,118873
107967,118846
107942,118898
107918,118840
107976,118886
107917,118858
107948,118931
107958,118889
107952,118875
108006,118906
108015,118882
108027,118939
108035,118907
108066,118933
108047,118955
108098,118928
108095,118981
108088,118924
108164,118968
108089,118945
108127,118925
108144,118977
108088,118955
108152,118948
108139,118983
108148,118969
108177,118963
108141,118996
108176,119023
108181,118977
108245,119002
108222,119045
108260,119017
108286,119065
108308,119043
108323,119029
108366,119071
108324,119111
108358,119049
108393,119080
108372,119077
108371,119068
108381,119085
108348,119046
108373,119054
108380,119066
108363,119097
108353,119038
108342,119084
108306,119036
108371,119029
108316,119059
108299,118999
108275,119020
108258,118972
108264,119008
108243,118995
108187,118993
108221,118956
108219,118968
108228,118956
108223,118972
108176,118967
108221,118937
108245,118983
108217,118946
108244,118977
108248,119006
108295,118992
108274,119046
108288,119001
108370,119055
108319,119045
108403,119051
108392,119081
108424,119065
108466,119103
108476,119098
108499,119102
108517,119135
108546,119172
108562,119144
108558,119166
108619,119201
108602,119160
108663,119173
108664,119226
108642,119168
108701,119225
108650,119220
108690,119192
108682,119240
108661,119189
108690,119214
108708,119224
108685,119185
108705,119233
108696,119234
108677,119193
108727,119226
108679,119215
108727,119217
108694,119257
108723,119216
108773,119248
108714,119216
108741,119243
108714,119255
108739,119246
108758,119236
108747,119226
108728,119231
108770,119239
108770,119234
108732,119252
108758,119215
108747,119249
108712,119216
108754,119240
108722,119259
108745,119208
108764,119267
108730,119208
108767,119235
108748,119276
108786,119214
108764,119272
108745,119221
108767,119250
108771,119218
108787,119258
108812,119260
108826,119264
108839,119269
108808,119263
108872,119286
108854,119298
108840,119245
108883,119277
108868,119282
108873,119289
108876,119316
108880,119270
108897,119308
108857,119290
108894,119312
108904,119300
108977,119337
108916,119328
108979,119324
108987,119371
108975,119323
109034,119372
109000,119357
109044,119359
109041,119395
109060,119381
109040,119384
109108,119424
109088,119413
109148,119413
109141,119463
109171,119442
109219,119479
109217,119478
109193,119467
109248,119485
109227,119482
109297,119483
109291,119516
109306,119496
109374,119527
109351,119538
109403,119533
109426,119591
109438,119567
109476,119576
109469,119565
109522,119576
109542,119635
109559,119632
109541,119647
109622,119657
109592,119679
109657,119700
109646,119694
109692,119695
109657,119728
109725,119734
109712,119749
109751,119721
109723,119721
109749,119746
109758,119739
109761,119756
109767,119733
109800,119764
109802,119780
109803,119757
109824,119772
109815,119777
109834,119793
109872,119804
109848,119822
109892,119815
109904,119798
109892,119820
109953,119864
109951,119854
109971,119848
109993,119854
109999,119853
110029,119895
109993,119875
110034,119901
110052,119897
110041,119901
110082,119898
110137,119964
110097,119910
110141,119947
110125,119981
110178,119933
110188,119989
110171,119957
110213,119991
110175,120012
110207,119979
110219,120002
110221,119965
110216,119992
110179,119973
110181,119951
110095,119919
110063,119895
109963,119835
109848,119763
109775,119730
109596,119648
109442,119505
109261,119426
109073,119297
108912,119253
108741,119184
108654,119061
108488,119032
108347,118934
108304,118905
108194,118869
108109,118795
108027,118800
107976,118783
107915,118731
107908,118717
107831,118691
107830,118651
107785,118694
107761,118666
107802,118649
107788,118698
107752,118673
107788,118658
107793,118694
107777,118649
107815,118691
107818,118694
107842,118705
107883,118712
107889,118745
107881,118745
107926,118736
107948,118784
107947,118769
107983,118796
107964,118803
107997,118769
108023,118825
108023,118799
108056,118812
108043,118820
108087,118809
108051,118846
108057,118846
108090,118838
108108,118866
108114,118852
108161,118866
108132,118890
108127,118853
108204,118882
108172,118901
108203,118889
108224,118932
108211,118895
108262,118949
108279,118973
108330,118960
108349,119013
108355,118956
108392,119006
108393,118984
108354,119032
108406,119009
108402,119015
108369,119001
108396,118976
108353,118944
108355,118955
108300,118918
108312,118961
108248,118934
108222,118895
108245,118913
108180,118859
108184,118875
108109,118856
108134,118844
108101,118837
108088,118840
108049,118808
108073,118810
108040,118825
108023,118772
108044,118793
107989,118778
108048,118784
108003,118825
108019,118776
108055,118811
108005,118804
108072,118808
108064,118797
108089,118828
108112,118826
108108,118848
108108,118837
108129,118840
108157,118895
108184,118867
108209,118909
108235,118881
108215,118925
108233,118903
108315,118936
108305,118964
108293,118917
108349,118977
108314,118956
108382,118967
108404,119011
108421,118975
108440,119020
108446,119026
108462,118981
108494,119019
108481,119071
108508,119066
108505,119061
108546,119066
108584,119099
108544,119058
108585,119083
108595,119108
108614,119053
108611,119102
108589,119090
108668,119128
108618,119146
108664,119102
108665,119126
108666,119122
108686,119137
108721,119133
108693,119118
108747,119147
108702,119169
108731,119145
108759,119191
108743,119131
108777,119168
108739,119149
108787,119157
108760,119197
108763,119161
108761,119173
108740,119153
108776,119175
108797,119159
108786,119160
108772,119203
108789,119205
108772,119177
108789,119157
108799,119209
108780,119164
108798,119178
108803,119180
108808,119164
108797,119194
108796,119163
108830,119198
108797,119186
108832,119149
108822,119193
108836,119206
108876,119198
108864,119213
108867,119206
108907,119253
108840,119215
108940,119215
108936,119284
108923,119225
108947,119257
108958,119282
108974,119231
109005,119284
108975,119232
109017,119282
108985,119309
109022,119294
109019,119285
109073,119320
109059,119319
109080,119303
109130,119344
109136,119369
109163,119340
109182,119384
109173,119334
109238,119387
109235,119378
109267,119422
109268,119377
109299,119409
109283,119387
109326,119377
109290,119445
109328,119429
109344,119461
109330,119456
109357,119431
109378,119487
109353,119449
109416,119480
109396,119487
109418,119458
109423,119529
109432,119504
109489,119520
109475,119521
109517,119505
109523,119562
109540,119515
109582,119567
109609,119569
109655,119598
109635,119613
109650,119616
109739,119627
109732,119654
109751,119676
109789,119652
109829,119696
109811,119684
109912,119709
109876,119748
109922,119714
109974,119768
109938,119739
109972,119775
109977,119800
110008,119785
110025,119782
110038,119822
110045,119794
110051,119834
110020,119791
110077,119808
110028,119830
110060,119781
110079,119842
110055,119782
110039,119796
110002,119777
109943,119751
109846,119671
109767,119613
109640,119579
109496,119467
109371,119395
109176,119291
109001,119183
108803,119093
108711,119032
108493,118971
108382,118872
108291,118849
108177,118736
108122,118734
108013,118708
107969,118633
107901,118652
107831,118585
107839,118608
107765,118590
107748,118557
107715,118539
107718,118531
107754,118539
107722,118549
107745,118549
107706,118536
107756,118543
107750,118600
107786,118554
107792,118612
107787,118593
107874,118598
107855,118646
107869,118607
107928,118681
107939,118642
107980,118686
107994,118707
108005,118705
108018,118708
108063,118714
108082,118745
108103,118723
108181,118756
108129,118771
108144,118800
108178,118793
108210,118778
108241,118837
108243,118792
108297,118844
108283,118841
108380,118853
108363,118919
108373,118888
108429,118938
108451,118928
108475,118952
108501,118924
108593,118998
108578,118992
108603,119001
108634,119051
108655,119013
108685,119056
108677,119050
108723,119050
108680,119055
108683,119015
108680,119045
108643,119020
108652,119005
108611,119013
108576,118973
108554,118940
108541,118929
108513,118974
108485,118897
108473,118925
108411,118865
108431,118836
108383,118879
108352,118806
108375,118846
108294,118813
108304,118798
108302,118854
108291,118776
108272,118791
108250,118798
108260,118788
108279,118788
108277,118842
108254,118800
108316,118830
108286,118828
108302,118844
108293,118814
108339,118827
108328,118880
108355,118817
108402,118874
108377,118869
108430,118864
108425,118917
108448,118886
108492,118921
108518,118934
108520,118936
108529,118961
108562,118935
108602,118988
108589,118969
108656,118993
108615,118991
108649,118999
108676,119037
108684,119006
108713,119039
108719,119025
108740,119030
108711,119033
108766,119043
108770,119056
108776,119063
108784,119086
108807,119050
108833,119078
108824,119124
108840,119088
108910,119105
108865,119109
108883,119110
108915,119156
108930,119108
108959,119165
108916,119135
108960,119154
108929,119160
108968,119143
108982,119160
109007,119161
108991,119179
108987,119194
109007,119179
109028,119170
109020,119218
109017,119203
109037,119175
109055,119200
109042,119193
109077,119225
109066,119203
109100,119212
109089,119247
109083,119195
109113,119234
109106,119212
109116,119207
109118,119244
109115,119243
109127,119236
109104,119219
109137,119244
109088,119229
109126,119208
109139,119253
109144,119214
109158,119257
109144,119216
109211,119241
109176,119251
109229,119267
109218,119275
109225,119299
109239,119274
109251,119282
109232,119277
109210,119289
109249,119267
109261,119313
109245,119274
109281,119271
109254,119334
109267,119284
109292,119330
109284,119267
109310,119319
109280,119307
109340,119303
109323,119356
109337,119334
109358,119341
109355,119374
109395,119372
109410,119348
109429,119384
109431,119377
109461,119386
109471,119403
109469,119395
109535,119440
109522,119433
109544,119448
109554,119451
109575,119440
109612,119457
109594,119457
109648,119491
109661,119511
109687,119485
109672,119510
109719,119512
109698,119538
109749,119528
109722,119533
109796,119582
109793,119556
109801,119569
109791,119578
109857,119614
109867,119621
109851,119606
109879,119581
109909,119600
109903,119636
109931,119642
109941,119622
109892,119665
109944,119630
109950,119645
109946,119656
109923,119659
109980,119632
109920,119659
109893,119591
109862,119612
109748,119511
109691,119492
109540,119427
109476,119313
109266,119279
109086,119129
108942,119072
108769,118971
108607,118876
108478,118819
108339,118760
108192,118663
108109,118610
107991,118597
107921,118518
107889,118522
107757,118460
107769,118432
107693,118478
107649,118383
107664,118403
107584,118357
107594,118345
107587,118377
107572,118371
107580,118373
107586,118337
107569,118381
107600,118374
107593,118374
107626,118359
107607,118423
107623,118363
107687,118434
107721,118412
107672,118410
107708,118445
107729,118435
107726,118441
107781,118471
107764,118473
107778,118482
107788,118445
107804,118481
107832,118475
107774,118485
107832,118519
107827,118497
107859,118499
107796,118483
107865,118510
107864,118510
107857,118513
107900,118533
107878,118524
107892,118531
107887,118533
107946,118555
107940,118564
107976,118579
108019,118578
108033,118588
108010,118625
108068,118582
108108,118656
108070,118614
108112,118636
108108,118675
108114,118623
108134,118649
108070,118611
108102,118616
108049,118647
108049,118575
108074,118608
107995,118568
107943,118566
107964,118538
107908,118580
107873,118490
107898,118539
107835,118487
107829,118469
107776,118455
107799,118445
107757,118420
107781,118419
107752,118467
107727,118410
107766,118422
107704,118423
107745,118413
107743,118430
107753,118423
107754,118457
107762,118409
107795,118434
107756,118445
107804,118436
107771,118462
107788,118441
107832,118495
107799,118449
107842,118459
107822,118484
107877,118483
107867,118528
107888,118471
107910,118518
107931,118515
107957,118541
107950,118533
107978,118571
107974,118545
108008,118542
108014,118565
108043,118560
108062,118603
108029,118559
108092,118591
108057,118616
108093,118579
108118,118638
108090,118579
108125,118607
108113,118606
108147,118618
108154,118630
108159,118632
108139,118625
108178,118655
108183,118623
108250,118658
108246,118698
108239,118695
108263,118675
108289,118668
108276,118723
108310,118690
108338,118715
108345,118724
108394,118713
108373,118766
108376,118754
108426,118751
108396,118784
108440,118800
108472,118746
108473,118805
108444,118757
108489,118770
108483,118811
108483,118767
108511,118803
108479,118798
108505,118802
108511,118815
108534,118796
108528,118797
108514,118825
108502,118807
108533,118805
108555,118789
108560,118826
108552,118844
108558,118795
108608,118821
108582,118826
108630,118837
108619,118877
108624,118837
108681,118866
108672,118898
108672,118872
108720,118920
108729,118887
108776,118920
108742,118906
108812,118916
108806,118925
108824,118944
108861,118987
108870,118968
108888,118965
108912,119011
108907,118988
108952,118992
108957,119032
108959,119002
108998,119061
108973,119044
109032,119018
109030,119100
109012,119033
109118,119099
109082,119078
109105,119086
109089,119134
109126,119118
109154,119107
109185,119121
109172,119164
109192,119120
109215,119156
109186,119127
109256,119154
109221,119190
109239,119159
109229,119143
109312,119186
109294,119211
109296,119169
109318,119202
109347,119216
109370,119273
109356,119236
109418,119228
109386,119265
109396,119219
109419,119290
109433,119263
109477,119301
109426,119273
109470,119243
109471,119307
109455,119238
109530,119301
109493,119278
109525,119271
109521,119335
109563,119330
109567,119305
109598,119321
109575,119348
109639,119360
109647,119363
109626,119389
109675,119380
109678,119413
109698,119370
109714,119393
109682,119387
109726,119374
109702,119427
109687,119382
109725,119400
109682,119414
109667,119377
109644,119383
109607,119321
109519,119291
109446,119240
109379,119189
109204,119089
109079,119033
108896,118922
108779,118854
108582,118753
108391,118652
108277,118607
108132,118516
108047,118453
107919,118418
107811,118337
107753,118355
107663,118282
107627,118227
107595,118228
107515,118224
107483,118174
107496,118171
107422,118168
107435,118143
107433,118172
107404,118132
107453,118153
107435,118176
107444,118128
107489,118206
107484,118158
107491,118190
107481,118180
107509,118221
107530,118214
107594,118237
107555,118240
107586,118253
107621,118248
107656,118268
107668,118268
107733,118280
107707,118350
107741,118280
107810,118363
107799,118335
107827,118351
107830,118377
107845,118341
107896,118394
107896,118391
107911,118406
107938,118416
107914,118408
107932,118401
108008,118420
107963,118450
108015,118429
108043,118496
108032,118444
108063,118475
108126,118493
108097,118518
108132,118498
108193,118554
108171,118530
108216,118530
108219,118563
108214,118581
108220,118545
108164,118571
108203,118512
108180,118556
108144,118510
108163,118518
108122,118516
108142,118463
108089,118494
108024,118432
108057,118461
107988,118433
107999,118421
107929,118392
107939,118362
107897,118387
107894,118343
107849,118356
107791,118329
107782,118328
107756,118292
107782,118281
107756,118305
107724,118283
107770,118296
107729,118334
107733,118283
107779,118344
107759,118292
107783,118307
107772,118306
107834,118325
107799,118345
107825,118340
107819,118349
107859,118366
107867,118322
107889,118400
107920,118363
107930,118398
107935,118391
107966,118411
107978,118412
108021,118450
108002,118460
108034,118421
108090,118487
108058,118448
108087,118476
108106,118502
108121,118496
108129,118496
108189,118507
108196,118531
108211,118551
108274,118559
108242,118554
108277,118578
108273,118590
108321,118552
108325,118627
108343,118580
108397,118657
108350,118622
108410,118642
108424,118604
108444,118622
108447,118642
108469,118679
108468,118648
108481,118659
108506,118664
108553,118705
108539,118694
108606,118715
108585,118730
108617,118703
108629,118764
108627,118733
108676,118761
108659,118751
108704,118743
108685,118797
108691,118735
108740,118790
108746,118775
108764,118789
108743,118784
108777,118807
108743,118810
108738,118805
108800,118833
108760,118804
108777,118788
108823,118840
108779,118792
108822,118825
108789,118808
108829,118802
108803,118877
108823,118828
108869,118868
108858,118854
108880,118845
108839,118847
108885,118844
108879,118883
108878,118858
108890,118856
108891,118898
108878,118862
108920,118916
108894,118847
108948,118876
108926,118878
108928,118899
108978,118891
108970,118917
108954,118946
108979,118916
108979,118903
108989,118918
109013,118934
109025,118945
109051,118962
109043,118953
109083,118986
109077,118974
109116,118989
109119,118985
109147,118997
109180,118992
109146,119006
109227,119039
109208,119034
109224,119057
109257,119037
109255,119043
109269,119073
109302,119091
109269,119076
109308,119103
109315,119093
109354,119117
109322,119111
109350,119104
109378,119142
109391,119127
109404,119145
109448,119170
109460,119143
109425,119157
109485,119161
109525,119181
109495,119180
109529,119209
109572,119198
109570,119212
109589,119210
109611,119252
109601,119247
109615,119235
109650,119271
109688,119268
109674,119259
109713,119298
109735,119272
109750,119284
109787,119332
109779,119321
109811,119315
109808,119337
109828,119369
109834,119346
109881,119390
109879,119374
109900,119348
109913,119381
109860,119358
109869,119384
109824,119352
109778,119268
109696,119285
109558,119146
109512,119147
109290,119039
109160,118933
108987,118869
108823,118761
108637,118657
108514,118578
108353,118510
108193,118463
108144,118376
108028,118363
107960,118288
107891,118299
107824,118250
107821,118206
107741,118244
107709,118174
107742,118223
107686,118162
107702,118177
107666,118180
107701,118164
107699,118185
107672,118189
107708,118180
107748,118199
107739,118235
107761,118210
107807,118252
107802,118238
107807,118239
107870,118294
107865,118296
107907,118293
107986,118338
107968,118342
108008,118330
108016,118387
108064,118385
108110,118371
108101,118423
108131,118405
108162,118424
108173,118481
108166,118425
108235,118458
108206,118497
108254,118453
108291,118525
108284,118490
108337,118526
108349,118520
108413,118568
108427,118596
108487,118584
108505,118610
108536,118652
108574,118643
108598,118669
108668,118708
108675,118714
108711,118699
108685,118720
108711,118709
108723,118750
108728,118709
108698,118719
108696,118714
108683,118714
108671,118673
108617,118675
108625,118663
108578,118645
108523,118624
108508,118606
108508,118605
108471,118558
108434,118572
108426,118537
108355,118527
108383,118507
108323,118490
108347,118502
108325,118506
108332,118474
108294,118479
108305,118480
108299,118476
108307,118495
108313,118495
108294,118469
108300,118502
108361,118538
108386,118518
108373,118544
108428,118566
108462,118551
108453,118586
108496,118597
108521,118587
108533,118609
108576,118645
108599,118624
108634,118639
108669,118677
108706,118672
108685,118688
108740,118714
108778,118719
108764,118732
108810,118760
108845,118773
108814,118778
108897,118835
108909,118786
108894,118807
108930,118836
108976,118823
108966,118827
109023,118851
109029,118852
109009,118856
109051,118875
109084,118887
109099,118894
109093,118900
109116,118909
109132,118906
109138,118922
109134,118941
109155,118928
109169,118933
109187,118934
109203,118944
109198,118965
109194,118952
109229,118968
109229,118932
109234,118978
109265,118986
109258,118978
109271,118975
109285,119013
109299,118976
109272,119002
109299,119016
109301,119001
109340,119011
109311,118995
109323,118995
109337,119004
109307,119014
109340,119013
109312,119002
109321,119004
109328,118993
109322,119017
109334,118985
109320,119012
109333,119008
109319,119016
109355,119021
109322,119009
109374,119039
109323,119005
109337,119001
109321,119022
109336,119039
109371,119008
109320,119033
109354,119033
109346,119038
109366,119030
109354,119023
109368,119042
109389,119055
109391,119026
109393,119043
109423,119049
109395,119060
109448,119058
109442,119062
109462,119091
109466,119058
109478,119077
109525,119086
109503,119103
109518,119111
109518,119137
109569,119133
109506,119107
109582,119142
109554,119125
109565,119124
109565,119141
109580,119132
109578,119137
109594,119147
109580,119131
109576,119134
109606,119164
109586,119160
109651,119147
109614,119165
109609,119156
109640,119175
109665,119159
109666,119189
109651,119175
109680,119154
109705,119190
109667,119186
109702,119175
109707,119207
109694,119206
109718,119202
109759,119215
109716,119223
109757,119206
109733,119224
109739,119237
109774,119225
109798,119251
109825,119242
109789,119256
109826,119276
109807,119266
109842,119262
109863,119265
109881,119277
109869,119279
109897,119307
109937,119290
109904,119321
109974,119345
109972,119330
109935,119312
109974,119337
109987,119338
109950,119331
109977,119314
109921,119314
109852,119254
109822,119239
109723,119175
109599,119108
109466,119036
109322,118960
109105,118821
108963,118776
108792,118666
108571,118549
108445,118491
108319,118414
108186,118331
108073,118293
108002,118246
107913,118210
107828,118165
107807,118144
107692,118094
107688,118082
107632,118054
107586,118038
107575,118027
107559,118023
107530,118022
107521,118013
107522,118003
107535,118013
107537,118012
107544,118024
107571,118050
107537,118031
107597,118050
107585,118049
107636,118070
107626,118064
107672,118089
107672,118097
107695,118127
107720,118103
107718,118117
107749,118128
107751,118133
107801,118161
107790,118140
107778,118170
107811,118174
107818,118165
107846,118161
107809,118157
107841,118189
107838,118173
107844,118189
107847,118186
107850,118179
107856,118205
107856,118194
107882,118204
107916,118193
107878,118217
107914,118224
107937,118245
107936,118252
107992,118289
107967,118273
107998,118265
108006,118251
108016,118293
108031,118282
108009,118280
108034,118293
108022,118277
107987,118275
107957,118247
107991,118268
107991,118226
107950,118229
107900,118224
107907,118199
107921,118205
107850,118164
107892,118192
107857,118172
107864,118151
107823,118139
107815,118152
107824,118129
107799,118123
107806,118129
107799,118137
107757,118135
107798,118122
107784,118133
107821,118125
107790,118128
107829,118138
107842,118134
107819,118165
107857,118148
107862,118152
107916,118168
107870,118173
107927,118187
107935,118191
107977,118203
107989,118211
108003,118243
108006,118254
108070,118250
108086,118285
108094,118271
108145,118296
108107,118299
108195,118343
108212,118342
108204,118331
108243,118363
108231,118346
108298,118364
108311,118355
108318,118390
108321,118409
108378,118394
108379,118426
108382,118426
108416,118434
108417,118477
108456,118413
108481,118462
108477,118476
108508,118454
108515,118506
108523,118480
108560,118508
108525,118514
108560,118496
108598,118542
108593,118491
108599,118549
108586,118529
108642,118561
108672,118556
108682,118580
108693,118563
108725,118608
108701,118578
108759,118591
108725,118584
108783,118581
108771,118660
108784,118616
108862,118634
108807,118669
108858,118636
108888,118702
108866,118654
108922,118665
108895,118671
108923,118707
108955,118693
108957,118691
108978,118725
108956,118726
108994,118723
109009,118717
109006,118722
109043,118737
109016,118730
109063,118754
109092,118752
109066,118755
109121,118785
109122,118781
109140,118789
109121,118801
109170,118781
109174,118807
109204,118844
109220,118825
109221,118819
109254,118856
109258,118852
109301,118859
109287,118853
109325,118879
109371,118883
109331,118908
109391,118918
109428,118926
109442,118952
109457,118942
109472,118981
109502,118983
109518,118983
109534,119007
109542,119015
109565,119019
109596,119015
109574,119020
109632,119048
109608,119038
109667,119062
109654,119055
109677,119057
109636,119050
109682,119077
109661,119072
109686,119074
109699,119072
109701,119081
109722,119067
109709,119093
109718,119080
109730,119104
109737,119098
109766,119100
109737,119095
109737,119116
109787,119106
109756,119106
109786,119141
109800,119114
109824,119143
109806,119131
109853,119152
109874,119145
109858,119162
109872,119169
109886,119171
109898,119168
109893,119178
109917,119167
109968,119187
109906,119207
109969,119234
109974,119213
109961,119218
110022,119256
110025,119255
110073,119257
110079,119267
110119,119307
110161,119307
110173,119333
110205,119319
110257,119351
110258,119369
110317,119381
110306,119378
110332,119363
110324,119420
110374,119416
110362,119406
110389,119421
110346,119395
110320,119390
110256,119346
110171,119287
110011,119206
109905,119154
109728,119038
109898,119168
109392,118837
109216,118756
109021,118659
108863,118577
108672,118464
108492,118396
108376,118313
108242,118252
108160,118201
108036,118183
107977,118132
107891,118088
107866,118050
107816,118025
107773,118028
107756,117987
107730,117988
107747,117972
107710,117972
107726,117988
107700,117995
107726,117989
107731,118012
107741,118022
107786,118031
107771,118023
107845,118059
107830,118038
107844,118073
107887,118072
107919,118116
107933,118095
107946,118113
107976,118139
107975,118113
108019,118145
108007,118133
108056,118174
108037,118171
108043,118193
108081,118197
108078,118196
108106,118181
108092,118186
108114,118175
108131,118196
108107,118216
108158,118249
108141,118236
108176,118234
108167,118254
108223,118245
108232,118270
108271,118279
108275,118304
108330,118310
108298,118326
108375,118364
108385,118341
108385,118380
108414,118371
108426,118382
108439,118376
108422,118376
108458,118407
108442,118386
108434,118381
108421,118354
108438,118367
108410,118338
108400,118334
108375,118331
108342,118303
108321,118291
108332,118282
108244,118264
108261,118270
108228,118253
108206,118251
108193,118232
108165,118219
108185,118203
108129,118191
108165,118224
108167,118206
108152,118224
108171,118201
108187,118205
108213,118214
108202,118222
108246,118249
108296,118252
108272,118278
108380,118318
108383,118321
108403,118348
108473,118381
108472,118360
108554,118401
108571,118410
108635,118439
108686,118480
108730,118504
108779,118513
108789,118532
108846,118540
108826,118552
108873,118583
108918,118592
108939,118603
108967,118601
108967,118605
108985,118626
109015,118649
108992,118662
109009,118651
109064,118668
109043,118672
109066,118669
109084,118672
109102,118672
109137,118706
109121,118726
109174,118722
109143,118732
109176,118746
109185,118747
109218,118771
109217,118763
109241,118766
109225,118777
109265,118789
109236,118798
109280,118786
109301,118777
109275,118828
109289,118777
109276,118796
109287,118813
109286,118790
109335,118805
109331,118812
109322,118816
109335,118783
109319,118802
109322,118838
109351,118846
109371,118815
109347,118809
109391,118816
109379,118854
109349,118835
109396,118836
109428,118862
109410,118861
109403,118881
109417,118837
109402,118879
109407,118829
109450,118868
109436,118875
109434,118854
109460,118895
109456,118874
109476,118881
109457,118887
109505,118882
109486,118930
109505,118886
109547,118922
109500,118906
109544,118919
109552,118931
109577,118920
109577,118948
109580,118897
109628,118947
109580,118936
109624,118986
109657,118946
109654,119002
109643,118976
109717,119014
109671,119012
109716,119002
109757,119047
109751,119052
109797,119045
109815,119081
109857,119084
109835,119054
109870,119095
109857,119136
109907,119094
109923,119126
109911,119084
109995,119136
109949,119160
109972,119122
109993,119168
110019,119141
110011,119175
109997,119169
110031,119174
110043,119148
110048,119189
110051,119165
110085,119194
110080,119197
110104,119224
110100,119192
110117,119197
110159,119242
110162,119218
110196,119262
110197,119260
110243,119255
110233,119306
110267,119256
110328,119324
110293,119293
110344,119297
110328,119322
110358,119323
110329,119328
110402,119337
110396,119343
110402,119362
110397,119394
110396,119326
110410,119362
110348,119340
110384,119341
110332,119333
110290,119270
110213,119254
110089,119199
110019,119114
109864,119054
109689,118929
110080,119197
109406,118796
109232,118705
109021,118587
108846,118507
108703,118400
108563,118361
108430,118242
108332,118226
108215,118142
108202,118134
108106,118082
108093,118101
108028,118035
108012,118059
107967,118039
107991,118021
107966,118032
107953,118042
107974,118032
107952,118046
107993,118032
108023,118100
108022,118048
108069,118111
108050,118110
108134,118125
108122,118171
108145,118139
108237,118202
108219,118196
108266,118209
108254,118227
108329,118206
108333,118246
108356,118289
108383,118270
108404,118263
108456,118291
108427,118318
108496,118333
108489,118323
108535,118325
108563,118370
108570,118345
108630,118371
108637,118420
108667,118395
108711,118458
108717,118427
108790,118467
108814,118489
108852,118495
108879,118542
108896,118502
108979,118576
108984,118594
108975,118605
109025,118569
109020,118642
109036,118609
109078,118623
109052,118606
109045,118637
108983,118585
108987,118581
109019,118607
108968,118567
108948,118545
108903,118522
108906,118521
108874,118538
108810,118467
108810,118437
108741,118465
108707,118393
108712,118430
108641,118405
108633,118360
108612,118393
108568,118332
108581,118376
108528,118330
108567,118309
108512,118347
108529,118318
108526,118329
108545,118316
108536,118313
108562,118299
108574,118328
108547,118338
108576,118312
108609,118360
108594,118349
108652,118364
108614,118416
108658,118369
108718,118431
108679,118425
108740,118404
108774,118486
108768,118436
108821,118493
108865,118473
108896,118504
108922,118498
108919,118555
108919,118507
108986,118560
108992,118585
109034,118576
109037,118605
109055,118603
109095,118579
109165,118642
109116,118632
109171,118622
109182,118684
109211,118650
109233,118676
109254,118653
109283,118692
109275,118701
109320,118724
109336,118761
109398,118722
109380,118776
109408,118744
109455,118791
109449,118775
109502,118807
109485,118809
109530,118805
109526,118859
109525,118811
109540,118852
109560,118828
109550,118858
109519,118850
109553,118827
109561,118840
109542,118863
109536,118809
109556,118854
109525,118831
109554,118834
109572,118894
109547,118819
109580,118865
109578,118859
109622,118861
109575,118892
109604,118842
109632,118877
109625,118877
109630,118877
109619,118862
109624,118900
109633,118865
109672,118921
109672,118885
109643,118879
109663,118923
109654,118914
109647,118862
109682,118927
109658,118867
109664,118892
109672,118889
109690,118875
109676,118932
109695,118895
109698,118923
109698,118921
109696,118937
109666,118917
109709,118898
109702,118949
109688,118904
109752,118941
109727,118932
109725,118910
109722,118948
109757,118913
109777,118970
109775,118971
109774,118956
109798,118961
109827,118967
109801,118964
109829,119003
109855,118984
109880,119009
109870,119002
109894,119030
109918,119041
109906,119025
109979,119083
109971,119053
109993,119073
110034,119082
110045,119103
110087,119096
110075,119118
110115,119140
110111,119141
110134,119125
110176,119191
110172,119163
110214,119167
110190,119167
110267,119212
110248,119206
110291,119220
110297,119221
110343,119228
110325,119270
110352,119238
110400,119285
110352,119253
110411,119280
110430,119293
110470,119287
110483,119315
110516,119339
110519,119350
110500,119317
110550,119369
110516,119371
110547,119339
110550,119383
110534,119332
110507,119360
110457,119305
110462,119290
110335,119258
110266,119170
110149,119105
110050,119035
109876,118949
109712,118856
109562,118774
109360,118665
109193,118553
108954,118492
108762,118340
108626,118317
108465,118203
108365,118110
108246,118094
108178,118008
108090,118040
108015,117954
107999,117971
107927,117896
107905,117915
107846,117904
107849,117879
107849,117876
107783,117894
107824,117894
107821,117907
107809,117884
107778,117873
107839,117893
107806,117915
107843,117875
107895,117928
107838,117922
107916,117915
107915,117951
107921,117907
107948,117976
107949,117957
107984,117993
108029,118003
107999,117986
108047,118004
108053,118015
108080,118005
108106,118034
108078,118034
108131,118048
108122,118076
108143,118037
108148,118050
108175,118078
108163,118047
108206,118067
108198,118074
108240,118068
108246,118120
108291,118129
108322,118134
108334,118127
108404,118196
108396,118187
108470,118199
108481,118257
108513,118221
108582,118281
108562,118274
108632,118291
108612,118307
108653,118299
108655,118331
108668,118300
108641,118339
108630,118297
108625,118274
108620,118288
108601,118298
108580,118281
108529,118257
108543,118238
108492,118262
108489,118186
108492,118225
108438,118167
108451,118187
108415,118181
108418,118147
108407,118196
108387,118117
108381,118161
108353,118140
108396,118141
108391,118161
108363,118142
108420,118174
108373,118196
108429,118143
108466,118201
108466,118162
108501,118207
108501,118222
108586,118248
108569,118267
108653,118281
108639,118319
108658,118272
108728,118347
108714,118338
108750,118353
108811,118368
108816,118399
108888,118393
108876,118428
108867,118395
108950,118427
108910,118472
108980,118438
109015,118496
109007,118456
109047,118509
109032,118494
109096,118541
109090,118564
109108,118516
109165,118579
109159,118556
109181,118591
109157,118572
109228,118601
109221,118594
109261,118583
109253,118637
109261,118612
109319,118649
109280,118641
109333,118651
109346,118686
109341,118656
109396,118692
109372,118688
109418,118714
109410,118713
109428,118714
109444,118716
109487,118745
109483,118748
109485,118738
109515,118749
109491,118731
109559,118731
109505,118784
109508,118760
109529,118787
109535,118741
109596,118757
109567,118802
109577,118766
109621,118809
109578,118817
109631,118793
109632,118820
109625,118813
109648,118826
109683,118818
109700,118840
109688,118827
109745,118849
109695,118879
109718,118833
109754,118898
109754,118844
109785,118885
109740,118864
109826,118888
109800,118925
109850,118893
109855,118885
109852,118916
109869,118930
109855,118918
109876,118980
109881,118944
109944,118954
109913,118966
109930,118941
109986,119003
109971,118999
110001,118975
109988,119013
110035,118978
110024,119024
110023,118997
110076,119038
110043,119019
110074,119030
110098,119064
110107,119054
110136,119079
110123,119068
110125,119030
110128,119082
110137,119076
110157,119061
110164,119137
110169,119086
110226,119104
110198,119133
110230,119074
110264,119133
110214,119112
110276,119121
110267,119135
110273,119150
110298,119150
110336,119112
110349,119194
110312,119163
110342,119191
110347,119187
110379,119160
110376,119220
110379,119173
110435,119226
110393,119206
110454,119196
110459,119189
110489,119241
110459,119211
110513,119244
110539,119268
110514,119242
110562,119285
110569,119264
110605,119299
110605,119284
110658,119323
110635,119328
110717,119321
110709,119370
110678,119320
110710,119369
110660,119349
110684,119331
110652,119331
110698,119322
110625,119342
110607,119294
110568,119302
110503,119231
110451,119178
110315,119105
110168,119058
110046,118960
109902,118893
109693,118762
109527,118676
109373,118614
109157,118473
109003,118396
108779,118299
108659,118208
108505,118164
108378,118059
108286,118039
108206,117979
108128,117975
108088,117943
108027,117906
108014,117862
107964,117899
107952,117858
107952,117874
107918,117834
107946,117865
107935,117880
107930,117855
107946,117893
107952,117855
107948,117890
107956,117935
107990,117896
107977,117906
108007,117942
108027,117909
108054,117917
108069,117950
108057,117940
108112,117943
108120,118009
108101,117929
108186,117991
108158,118007
108177,118006
108193,118025
108197,118008
108233,118037
108217,118010
108271,118030
108265,118029
108305,118064
108295,118071
108316,118068
108323,118078
108333,118111
108378,118093
108440,118123
108401,118118
108462,118148
108470,118197
108517,118156
108562,118202
108560,118194
108635,118213
108611,118268
108646,118226
108649,118238
108678,118271
108667,118257
108672,118261
108700,118271
108647,118280
108652,118213
108657,118243
108597,118190
108603,118232
108602,118186
108557,118194
108504,118150
108541,118172
108472,118132
108479,118138
108426,118121
108408,118107
108379,118085
108403,118094
108369,118110
108356,118049
108371,118103
108336,118053
108385,118089
108331,118072
108382,118069
108378,118110
108380,118061
108442,118109
108411,118112
108478,118133
108466,118123
108519,118109
108547,118158
108558,118202
108614,118183
108653,118217
108642,118224
108678,118236
108751,118291
108710,118242
108772,118286
108793,118324
108816,118277
108847,118337
108837,118339
108903,118344
108903,118412
108922,118360
108991,118400
108985,118403
109003,118402
109050,118416
109020,118443
109089,118434
109073,118471
109131,118457
109128,118520
109127,118467
109182,118485
109238,118531
109221,118529
109293,118554
109272,118549
109291,118524
109332,118603
109332,118584
109362,118590
109383,118599
109376,118630
109424,118589
109439,118601
109455,118609
109436,118643
109425,118631
109470,118660
109470,118666
109486,118624
109498,118671
109482,118638
109528,118654
109494,118689
109513,118637
109504,118684
109488,118666
109510,118665
109503,118670
109493,118649
109537,118679
109512,118663
109546,118691
109494,118698
109527,118649
109519,118702
109519,118658
109525,118688
109513,118686
109539,118650
109544,118699
109530,118657
109575,118698
109544,118715
109582,118689
109573,118686
109588,118713
109578,118723
109572,118656
109593,118732
109573,118703
109612,118701
109603,118700
109591,118709
109585,118715
109569,118701
109603,118726
109577,118690
109598,118708
109605,118704
109627,118713
109641,118737
109639,118695
109636,118752
109678,118744
109686,118757
109710,118766
109696,118776
109739,118790
109740,118785
109762,118784
109775,118793
109791,118804
109802,118816
109761,118795
