
0
0
0
0
0
0
0
0
0
0
0
0
0
0
0
0
0
0
0
0
0
0
0
0
0
0
0
0
0
0
0
0
0
0
0
0
0
0
0
0
0
0
0
0
0
0
0
0
0
0
0
0
0
0
0
0
0
0
0
0
0
0
0
0
0
0
0
0
0
0
0
0
0
0
0
0
0
0
0
0
0
0
0
0
0
0
0
0
0
0
0
0
0
0
0
0
0
0
0
0
0
0
0
0
0
0
0
0
0
0
0
0
0
0
0
0
0
0
0
0
0
0
0
0
0
0
0
0
0
0
0
0
0
0
0
0
0
0
0
0
0
0
0
0
0
0
0
0
0
0
0
0
0
0
0
0
0
0
0
0
0
0
0
0
0
0
0
0
0
0
0
0
0
0
0
0
0
0
0
0
0
0
0
0
0
0
0
0
0
0
0
0
0
0
0
0
0
0
0
0
0
0
0
0
0
0
0
0
0
0
0
0
0
0
0
0
0
0
0
0
0
0
0
0
0
0
0
0
0
0
0
0
0
0
0
0
0
0
0
0
0
0
0
0
0
0
0
0
0
0
0
0
0
0
0
0
0
0
0
0
0
0
0
0
0
0
0
0
0
0
0
0
0
0
0
0
0
0
0
0
0
0
0
0
0
0
0
0
0
0
0
0
0
0
0
0
0
0
0
0
0
0
0
0
0
0
0
0
0
0
0
0
0
0
0
0
0
0
0
0
0
0
0
0
0
0
0
0
0
0
0
0
0
0
0
0
0
0
0
0
0
0
0
0
0
0
0
0
0
0
0
0
0
0
0
0
0
0
0
0
0
0
0
0
0
0
0
0
0
0
0
0
0
0
0
0
0
0
0
0
0
0
0
0
0
0
0
0
0
0
0
0
0
0
0
0
0
0
0
0
0
0
0
0
0
0
0
0
0
0
0
0
0
0
0
0
0
0
0
0
0
0
0
0
0
0
0
0
0
0
0
0
0
0
0
0
0
0
0
0
0
0
0
0
0
0
0
0
0
0
0
0
0
0
0
0
0
0
0
0
0
0
0
0
0
0
0
0
0
0
0
0
0
0
0
0
0
0
0
0
0
0
0
0
0
0
0
0
0
0
0
0
0
0
0
0
0
0
0
0
0
0
0
0
0
0
0
0
0
0
0
0
0
0
0
0
0
0
0
0
0
0
0
0
0
0
0
0
0
0
0
0
0
0
0
0
0
0
0
0
0
0
0
0
0
0
0
0
0
0
0
0
0
0
0
0
0
0
0
0
0
0
0
0
0
0
0
0
0
0
0
0
0
0
0
0
0
0
0
0
0
0
0
0
0
0
0
0
0
0
0
0
0
0
0
0
0
0
0
0
0
0
0
0
0
0
0
0
0
0
0
0
0
0
0
0
0
0
0
0
0
0
0
0
0
0
0
0
0
0
0
0
0
0
0
0
0
0
0
0
0
0
0
0
0
0
0
0
0
0
0
0
0
0
0
0
0
0
0
0
0
0
0
0
0
0
0
0
0
0
0
0
0
0
0
0
0
0
0
0
0
0
0
0
0
0
0
0
0
0
0
0
0
0
0
0
0
0
0
0
0
0
0
0
0
0
0
0
0
0
0
0
0
0
0
0
0
0
0
0
0
0
0
0
0
0
0
0
0
0
0
0
0
0
0
0
0
0
0
0
0
0
0
0
0
0
0
0
0
0
0
0
0
0
0
0
0
0
0
0
0
0
0
0
0
0
0
0
0
0
0
0
0
0
0
0
0
0
0
0
0
0
0
0
0
0
0
0
0
0
0
0
0
0
0
0
0
0
0
0
0
0
0
0
0
0
0
0
0
0
0
0
0
0
0
0
0
0
0
0
0
0
0
0
0
0
0
0
0
0
0
0
0
0
0
0
0
0
0
0
0
0
0
0
0
0
0
0
0
0
0
0
0
0
0
0
0
0
0
0
0
0
0
0
0
0
0
0
0
0
0
0
0
0
0
0
0
0
0
0
0
0
0
0
0
0
0
0
0
0
0
0
0
0
0
0
0
0
0
0
0
0
0
0
0
0
0
0
0
0
0
0
0
0
0
0
0
0
0
0
0
0
0
0
0
0
0
0
0
0
0
0
0
0
0
0
0
0
0
0
0
0
0
0
0
0
0
0
0
0
0
0
0
0
0
0
0
0
0
0
0
0
0
0
0
0
0
0
0
0
0
0
0
0
0
0
0
0
0
0
0
0
0
0
0
0
0
0
0
0
0
0
0
0
0
0
0
0
0
0
0
0
0
0
0
0
0
0
0
0
0
0
0
0
0
0
0
0
0
0
0
0
0
0
0
0
0
0
0
0
0
0
0
0
0
0
0
0
0
0
0
0
0
0
0
0
0
0
0
0
0
0
0
0
0
0
0
0
0
0
0
0
0
0
0
0
0
0
0
0
0
0
0
0
0
0
0
0
0
0
0
0
0
0
0
0
0
0
0
0
0
0
0
0
0
0
0
0
0
0
0
0
0
0
0
0
0
0
0
0
0
0
0
0
0
0
0
0
0
0
0
0
0
0
0
0
0
0
0
0
0
0
0
0
0
0
0
0
0
0
0
0
0
0
0
0
0
0
0
0
0
0
0
0
0
0
0
0
0
0
0
0
0
0
0
0
0
0
0
0
0
0
0
0
0
0
0
0
0
0
0
0
0
0
0
0
0
0
0
0
0
0
0
0
0
0
0
0
0
0
0
0
0
0
0
0
0
0
0
0
0
0
0
0
0
0
0
0
0
0
0
0
0
0
0
0
0
0
0
0
0
0
0
0
0
0
0
0
0
0
0
0
0
0
0
0
0
0
0
0
0
0
0
0
0
0
0
0
0
0
0
0
0
0
0
0
0
0
0
0
0
0
0
0
0
0
0
0
0
0
0
0
0
0
0
0
0
0
0
0
0
0
0
0
0
0
0
0
0
0
0
0
0
0
0
0
0
0
0
0
0
0
0
0
0
0
0
0
0
0
0
0
0
0
0
0
0
0
0
0
0
0
0
0
0
0
0
0
0
0
0
0
0
0
0
0
0
0
0
0
0
0
0
0
0
0
0
0
0
0
0
0
0
0
0
0
0
0
0
0
0
0
0
0
0
0
0
0
0
0
0
0
0
0
0
0
0
0
0
0
0
0
0
0
0
0
0
0
0
0
0
0
0
0
0
0
0
0
0
0
0
0
0
0
0
0
0
0
0
0
0
0
0
0
0
0
0
0
0
0
0
0
0
0
0
0
0
0
0
0
0
0
0
0
0
0
0
0
0
0
0
0
0
0
0
0
0
0
0
0
0
0
0
0
0
0
0
0
0
0
0
0
0
0
0
0
0
0
0
0
0
0
0
0
0
0
0
0
0
0
0
0
0
0
0
0
0
0
0
0
0
0
0
0
0
0
0
0
0
0
0
0
0
0
0
0
0
0
0
0
0
0
0
0
0
0
0
0
0
0
0
0
0
0
0
0
0
0
0
0
0
0
0
0
0
0
0
0
0
0
0
0
0
0
0
0
0
0
0
0
0
0
0
0
0
0
0
0
0
0
0
0
0
0
0
0
0
0
0
0
0
0
0
0
0
0
0
0
0
0
0
0
0
0
0
0
0
0
0
0
0
0
0
0
0
0
0
0
0
0
0
0
0
0
0
0
0
0
0
0
0
0
0
0
0
0
0
0
0
0
0
0
0
0
0
0
0
0
0
0
0
0
0
0
0
0
0
0
0
0
0
0
0
0
0
0
0
0
0
0
0
0
0
0
0
0
0
0
0
0
0
0
0
0
0
0
0
0
0
0
0
0
0
0
0
0
0
0
0
0
0
0
0
0
0
0
0
0
0
0
0
0
0
0
0
0
0
0
0
0
0
0
0
0
0
0
0
0
0
0
0
0
0
0
0
0
0
0
0
0
0
0
0
0
0
0
0
0
0
0
0
0
0
0
0
0
0
0
0
0
0
0
0
0
0
0
0
0
0
0
0
0
0
0
0
0
0
0
0
0
0
0
0
0
0
0
0
0
0
0
0
0
0
0
0
0
0
0
0
0
0
0
0
0
0
0
0
0
0
0
0
0
0
0
0
0
0
0
0
0
0
0
0
0
0
0
0
0
0
0
0
0
0
0
0
0
0
0
0
0
0
0
0
0
0
0
0
0
0
0
0
0
0
0
0
0
0
0
0
0
0
0
0
0
0
0
0
0
0
0
0
0
0
0
0
0
0
0
0
0
0
0
0
0
0
0
0
0
0
0
0
0
0
0
0
0
0
0
0
0
0
0
0
0
0
0
0
0
0
0
0
0
0
0
0
0
0
0
0
0
0
0
0
0
0
0
0
0
0
0
0
0
0
0
0
0
0
0
0
0
0
0
0
0
0
0
0
0
0
0
0
0
0
0
0
0
0
0
0
0
0
0
0
0
0
0
0
0
0
0
0
0
0
0
0
0
0
0
0
0
0
0
0
0
0
0
0
0
0
0
0
0
0
0
0
0
0
0
0
0
0
0
0
0
0
0
0
0
0
0
0
0
0
0
0
0
0
0
0
0
0
0
0
0
0
0
0
0
0
0
0
0
0
0
0
0
0
0
0
0
0
0
0
0
0
0
0
0
0
0
0
0
0
0
0
0
0
0
0
0
0
0
0
0
0
0
0
0
0
0
0
0
0
0
0
0
0
0
0
0
0
0
0
0
0
0
0
0
0
0
0
0
0
0
0
0
0
0
0
0
0
0
0
0
0
0
0
0
0
0
0
0
0
0
0
0
0
0
0
0
0
0
0
0
0
0
0
0
0
0
0
0
0
0
0
0
0
0
0
0
0
0
0
0
0
0
0
0
0
0
0
0
0
0
0
0
0
0
0
0
0
0
0
0
0
0
0
0
0
0
0
0
0
0
0
0
0
0
0
0
0
0
0
0
0
0
0
0
0
0
0
0
0
0
0
0
0
-1
0
-1
0
-1
0
-1
0
-1
1
-11
-21
-21
-26
-28
-33
-37
-41
-46
-50
-57
-63
-68
-73
-79
-83
-91
-96
-101
-107
-113
-119
-126
-132
-139
-144
-148
-156
-162
-168
-173
-179
-184
-189
-196
-203
-208
-213
-219
-226
-232
-238
-244
-248
-254
-259
-264
-270
-273
-281
-288
-291
-298
-304
-310
-314
-319
-327
-331
-335
-342
-348
-352
-358
-363
-368
-375
-380
-383
-390
-396
-401
-405
-409
-417
-421
-424
-432
-436
-441
-447
-451
-458
-464
-468
-473
-478
-482
-487
-493
-497
-501
-506
-513
-517
-520
-526
-532
-535
-540
-545
-550
-556
-560
-565
-570
-575
-581
-585
-589
-594
-599
-603
-607
-612
-617
-620
-628
-630
-635
-641
-645
-649
-655
-658
-661
-667
-672
-677
-680
-686
-689
-694
-698
-703
-709
-713
-717
-721
-725
-730
-735
-737
-742
-747
-752
-756
-758
-763
-768
-773
-776
-780
-784
-789
-791
-797
-801
-804
-809
-813
-818
-819
-825
-828
-831
-838
-842
-844
-849
-851
-856
-859
-864
-867
-872
-876
-878
-882
-886
-892
-893
-900
-904
-905
-909
-914
-917
-921
-926
-930
-933
-935
-941
-943
-948
-953
-955
-958
-963
-966
-968
-973
-975
-982
-982
-987
-990
-995
-998
-1001
-1004
-1007
-1012
-1014
-1019
-1022
-1027
-1029
-1031
-1036
-1038
-1045
-1049
-1050
-1055
-1057
-1061
-1063
-1067
-1068
-1074
-1076
-1080
-1083
-1087
-1090
-1092
-1097
-1103
-1104
-1105
-1109
-1112
-1114
-1118
-1124
-1125
-1130
-1131
-1133
-1137
-1141
-1144
-1148
-1151
-1154
-1156
-1161
-1162
-1164
-1168
-1169
-1174
-1178
-1179
-1182
-1187
-1189
-1190
-1195
-1197
-1201
-1201
-1207
-1210
-1210
-1215
-1217
-1221
-1223
-1225
-1228
-1232
-1234
-1236
-1241
-1244
-1243
-1249
-1250
-1252
-1256
-1258
-1262
-1264
-1268
-1268
-1274
-1275
-1276
-1280
-1282
-1286
-1289
-1292
-1297
-1297
-1299
-1302
-1303
-1307
-1307
-1311
-1314
-1314
-1318
-1321
-1323
-1324
-1329
-1332
-1332
-1337
-1338
-1342
-1343
-1346
-1348
-1351
-1353
-1356
-1357
-1359
-1363
-1364
-1367
-1367
-1369
-1373
-1376
-1377
-1381
-1383
-1385
-1386
-1390
-1391
-1393
-1396
-1398
-1400
-1403
-1404
-1408
-1410
-1411
-1414
-1416
-1418
-1418
-1423
-1425
-1425
-1430
-1431
-1433
-1435
-1438
-1440
-1442
-1444
-1446
-1448
-1448
-1452
-1455
-1455
-1458
-1460
-1462
-1465
-1467
-1468
-1470
-1472
-1474
-1476
-1478
-1480
-1482
-1484
-1485
-1487
-1489
-1492
-1494
-1495
-1498
-1497
-1500
-1503
-1504
-1507
-1508
-1508
-1511
-1515
-1515
-1516
-1520
-1521
-1523
-1524
-1526
-1526
-1530
-1530
-1532
-1535
-1536
-1537
-1539
-1541
-1542
-1544
-1546
-1546
-1547
-1551
-1552
-1554
-1554
-1557
-1559
-1560
-1563
-1562
-1564
-1567
-1568
-1571
-1572
-1572
-1576
-1576
-1577
-1580
-1579
-1581
-1584
-1586
-1588
-1589
-1590
-1592
-1592
-1594
-1595
-1595
-1599
-1600
-1601
-1602
-1604
-1605
-1606
-1608
-1609
-1612
-1613
-1615
-1615
-1618
-1620
-1620
-1623
-1623
-1623
-1625
-1625
-1629
-1630
-1631
-1632
-1633
-1634
-1635
-1638
-1639
-1641€
-1641
-1643
-1643
-1646
-1647
-1647
-1648
-1650
-1651
-1654
-1654
-1654
-1656
-1656
-1659
-1657
-1659
-1662
-1663
-1664
-1665
-1666
-1667
-1669
-1670
-1671
-1672
-1674
-1675
-1677
-1677
-1679
-1676
-1677
-1682
-1681
-1683
-1685
-1685
-1686
-1688
-1689
-1690
-1689
-1691
-1692
-1693
-1697
-1696
-1696
-1699
-1700
-1699
-1701
-1700
-1701
-1704
-1704
-1705
-1706
-1708
-1709
-1710
-1712
-1711
-1710
-1712
-1714
-1716
-1714
-1716
-1717
-1717
-1720
-1720
-1721
-1722
-1723
-1725
-1724
-1726
-1727
-1727
-1727
-1728
-1731
-1731
-1733
-1731
-1733
-1736
-1735
-1735
-1737
-1739
-1739
-1740
-1740
-1741
-1741
-1742
-1743
-1742
-1745
-1745
-1744
-1746
-1746
-1747
-1748
-1750
-1749
-1751
-1750
-1750
-1752
-1753
-1753
-1755
-1756
-1755
-1758
-1757
-1757
-1757
-1760
-1758
-1761
-1761
-1761
-1762
-1759
-1761
-1763
-1765
-1764
-1765
-1766
-1767
-1767
-1767
-1768
-1770
-1769
-1769
-1771
-1772
-1771
-1772
-1773
-1774
-1775
-1774
-1774
-1775
-1776
-1776
-1778
-1777
-1777
-1779
-1779
-1780
-1780
-1782
-1781
-1781
-1782
-1782
-1785
-1784
-1784
-1784
-1785
-1786
-1786
-1785
-1788
-1786
-1787
-1788
-1789
-1789
-1789
-1789
-1789
-1790
-1792
-1792
-1791
-1790
-1790€
-1793
-1793
-1792
-1795
-1793
-1795
-1794
-1796
-1795
-1795
-1796
-1796
-1798
-1795
-1796
-1798
-1798
-1797
-1800
-1799
-1799
-1801
-1799
-1800
-1800
-1800
-1801
-1802
-1804
-1803
-1803
-1802
-1803
-1804
-1804
-1802
-1805
-1805
-1804
-1807
-1804
-1806
-1807
-1804
-1806
-1807
-1806
-1808
-1807
-1806
-1807
-1808
-1809
-1807
-1808
-1809
-1808
-1809
-1810
-1809
-1810
-1810
-1811
-1809
-1811
-1811
-1809
-1811
-1810
-1811
-1812
-1811
-1811
-1811
-1811
-1811
-1812
-1813
-1813
-1810
-1813
-1812
-1811
-1811
-1812
-1813
-1810
-1814
-1813
-1814
-1813
-1812
-1813
-1814
-1811
-1813
-1813
-1811
-1812
-1815
-1814
-1815
-1815
-1813
-1815
-1814
-1814
-1813
-1814
-1815
-1814
-1813
-1812
-1815
-1814
-1815
-1812
-1814
-1815
-1814
-1816
-1814
-1814
-1813
-1815
-1815
-1815
-1815
-1814
-1815
-1814
-1816
-1814
-1813
-1815
-1812
-1813
-1814
-1813
-1813
-1814
-1814
-1814
-1815
-1814
-1814
-1815
-1815
-1813
-1814
-1815
-1815
-1813
-1815
-1812
-1812
-1814
-1813
-1813
-1814
-1812
-1812
-1813
-1811
-1811
-1811
-1811
-1810
-1810
-1810
-1811
-1811
-1811
-1809
-1812
-1812
-1811
-1810
-1809
-1810
-1811
-1810
-1809
-1810
-1809
-1809
-1809
-1810
-1807
-1810
-1808
-1807€
-1809
-1807
-1808
-1806
-1807
-1806
-1808
-1807
-1808
-1807
-1807
-1807
-1806
-1805
-1807
-1804
-1806
-1807
-1805
-1804
-1804
-1803
-1803
-1804
-1803
-1803
-1803
-1803
-1803
-1801
-1800
-1801
-1803
-1800
-1801
-1799
-1801
-1802
-1801
-1800
-1799
-1797
-1799
-1799
-1798
-1797
-1797
-1798
-1796
-1798
-1797
-1798
-1797
-1795
-1797
-1795
-1795
-1796
-1793
-1795
-1796
-1794
-1791
-1794
-1792
-1791
-1792
-1792
-1792
-1793
-1793
-1791
-1791
-1790
-1789
-1789
-1790
-1790
-1789
-1787
-1788
-1787
-1786
-1787
-1786
-1785
-1785
-1786
-1785
-1783
-1785
-1784
-1782
-1783
-1783
-1781
-1782
-1779
-1780
-1781
-1780
-1778
-1780
-1779
-1779
-1778
-1777
-1776
-1777
-1777
-1775
-1774
-1775
-1776
-1773
-1773
-1772
-1773
-1774
-1772
-1772
-1772
-1772
-1771
-1770
-1772
-1771
-1769
-1771
-1770
-1769
-1767
-1767
-1767
-1767
-1767
-1766
-1765
-1764
-1766
-1764
-1763
-1763
-1762
-1762
-1763
-1762
-1761
-1762
-1761
-1760
-1759
-1760
-1759
-1757
-1757
-1756
-1756
-1756
-1754
-1755
-1755
-1754
-1753
-1753
-1753
-1751
-1753
-1751
-1751
-1752
-1749
-1748
-1749
-1748
-1749
-1747
-1746
-1747
-1744
-1746
-1744
-1745
-1744
-1744
-1745
-1743
-1743
-1742
-1742
-1740
-1739€
-1739
-1738
-1737
-1737
-1736
-1735
-1735
-1736
-1735
-1734
-1733
-1733
-1734
-1732
-1733
-1732
-1733
-1731
-1732
-1730
-1731
-1731
-1729
-1729
-1727
-1726
-1726
-1726
-1725
-1726
-1725
-1723
-1721
-1723
-1721
-1721
-1720
-1720
-1718
-1719
-1721
-1716
-1717
-1718
-1717
-1717
-1716
-1716
-1713
-1713
-1714
-1713
-1711
-1712
-1710
-1710
-1710
-1709
-1709
-1706
-1708
-1705
-1706
-1705
-1705
-1704
-1703
-1704
-1704
-1703
-1703
-1698
-1700
-1700
-1700
-1698
-1697
-1697
-1697
-1696
-1695
-1695
-1695
-1693
-1693
-1694
-1692
-1693
-1692
-1690
-1691
-1690
-1689
-1690
-1689
-1688
-1687
-1686
-1685
-1685
-1686
-1684
-1683
-1683
-1682
-1682
-1682
-1680
-1681
-1681
-1679
-1678
-1676
-1676
-1677
-1677
-1673
-1675
-1673
-1673
-1673
-1672
-1672
-1671
-1669
-1667
-1669
-1666
-1665
-1668
-1666
-1666
-1664
-1663
-1662
-1661
-1663
-1660
-1661
-1659
-1660
-1657
-1658
-1656
-1657
-1657
-1655
-1653
-1652
-1653
-1653
-1651
-1652
-1651
-1651
-1652
-1649
-1647
-1647
-1647
-1647
-1645
-1643
-1643
-1644
-1643
-1640
-1642
-1640
-1638
-1638
-1638
-1638
-1636
-1637
-1635
-1635
-1635
-1634
-1634
-1633
-1630
-1629
-1629
-1629
-1629
-1628
-1627
-1628
-1624
-1625
-1625€
-1622
-1625
-1621
-1624
-1621
-1619
-1619
-1618
-1617
-1619
-1617
-1617
-1615
-1615
-1615
-1614
-1612
-1613
-1610
-1611
-1612
-1609
-1608
-1610
-1606
-1609
-1607
-1605
-1605
-1605
-1603
-1603
-1603
-1602
-1601
-1600
-1601
-1600
-1598
-1598
-1597
-1595
-1594
-1593
-1594
-1592
-1593
-1592
-1591
-1591
-1590
-1588
-1589
-1589
-1588
-1587
-1584
-1585
-1584
-1584
-1580
-1582
-1581
-1580
-1579
-1578
-1578
-1579
-1578
-1575
-1575
-1576
-1573
-1571
-1574
-1572
-1571
-1571
-1568
-1567
-1568
-1566
-1568
-1566
-1565
-1565
-1564
-1563
-1563
-1563
-1561
-1561
-1561
-1558
-1559
-1558
-1556
-1556
-1555
-1555
-1554
-1554
-1554
-1551
-1551
-1553
-1550
-1548
-1547
-1546
-1546
-1545
-1546
-1544
-1544
-1542
-1541
-1542
-1539
-1540
-1540
-1539
-1538
-1535
-1536
-1535
-1535
-1533
-1535
-1533
-1532
-1532
-1530
-1530
-1529
-1526
-1526
-1526
-1525
-1526
-1523
-1525
-1523
-1521
-1520
-1521
-1519
-1518
-1519
-1517
-1516
-1517
-1515
-1515
-1513
-1513
-1511
-1511
-1510
-1512
-1507
-1509
-1506
-1508
-1507
-1504
-1504
-1504
-1503
-1503
-1502
-1502
-1500
-1498
-1497
-1501
-1498
-1497
-1496
-1496
-1495
-1493
-1494
-1493
-1491
-1490
-1491
-1491
-1489
-1489
-1486
-1488€
-1485
-1485
-1484
-1484
-1483
-1484
-1481
-1481
-1478
-1480
-1477
-1477
-1477
-1475
-1474
-1474
-1474
-1472
-1474
-1472
-1472
-1468
-1469
-1468
-1468
-1466
-1465
-1466
-1465
-1463
-1463
-1462
-1462
-1461
-1460
-1459
-1459
-1457
-1457
-1455
-1458
-1453
-1455
-1453
-1452
-1452
-1452
-1450
-1450
-1448
-1448
-1447
-1446
-1446
-1444
-1445
-1445
-1443
-1442
-1441
-1439
-1439
-1439
-1438
-1438
-1436
-1435
-1434
-1435
-1434
-1432
-1431
-1432
-1429
-1430
-1429
-1429
-1428
-1427
-1426
-1426
-1424
-1422
-1423
-1421
-1421
-1420
-1419
-1419
-1418
-1417
-1416
-1415
-1413
-1415
-1413
-1412
-1411
-1413
-1409
-1408
-1408
-1406
-1406
-1406
-1407
-1403
-1402
-1404
-1404
-1401
-1401
-1398
-1399
-1398
-1398
-1397
-1397
-1394
-1394
-1393
-1393
-1392
-1392
-1391
-1391
-1390
-1390
-1388
-1388
-1387
-1385
-1386
-1384
-1383
-1382
-1383
-1380
-1381
-1378
-1379
-1378
-1378
-1377
-1378
-1375
-1374
-1372
-1371
-1370
-1371
-1370
-1369
-1367
-1368
-1367
-1367
-1366
-1364
-1362
-1361
-1362
-1361
-1359
-1359
-1359
-1359
-1358
-1356
-1355
-1355
-1354
-1353
-1352
-1350
-1352
-1350
-1350
-1348
-1349
-1344
-1346
-1345
-1344
-1343
-1344
-1342
-1340
-1342
-1339
-1342
-1338€
-1338
-1337
-1336
-1335
-1336
-1333
-1333
-1331
-1332
-1330
-1330
-1330
-1329
-1328
-1327
-1326
-1328
-1325
-1322
-1325
-1322
-1322
-1321
-1320
-1319
-1320
-1320
-1317
-1316
-1318
-1316
-1314
-1314
-1313
-1310
-1311
-1310
-1310
-1307
-1307
-1308
-1306
-1306
-1305
-1305
-1304
-1302
-1302
-1301
-1300
-1301
-1299
-1300
-1298
-1297
-1296
-1295
-1294
-1292
-1293
-1291
-1292
-1289
-1290
-1289
-1288
-1285
-1287
-1285
-1285
-1283
-1283
-1282
-1282
-1281
-1280
-1280
-1278
-1278
-1276
-1276
-1273
-1275
-1272
-1273
-1272
-1272
-1269
-1270
-1269
-1268
-1267
-1267
-1266
-1266
-1266
-1264
-1264
-1263
-1262
-1261
-1260
-1260
-1258
-1258
-1257
-1257
-1255
-1254
-1256
-1254
-1252
-1254
-1252
-1251
-1250
-1250
-1247
-1246
-1248
-1245
-1244
-1245
-1244
-1243
-1242
-1242
-1241
-1239
-1240
-1239
-1237
-1237
-1234
-1235
-1234
-1233
-1231
-1232
-1231
-1229
-1230
-1228
-1227
-1228
-1225
-1224
-1225
-1225
-1223
-1224
-1222
-1220
-1221
-1217
-1219
-1217
-1217
-1217
-1215
-1216
-1211
-1213
-1213
-1212
-1211
-1209
-1209
-1208
-1207
-1206
-1207
-1205
-1204
-1204
-1204
-1202
-1200
-1201
-1200
-1198
-1199
-1197
-1196
-1195
-1194
-1194
-1195
-1194
-1191
-1192
-1192€
-1189
-1189
-1188
-1188
-1186
-1184
-1187
-1186
-1185
-1183
-1184
-1182
-1181
-1180
-1178
-1178
-1178
-1179
-1178
-1177
-1177
-1176
-1174
-1172
-1173
-1171
-1171
-1170
-1169
-1170
-1167
-1167
-1167
-1163
-1165
-1165
-1163
-1165
-1162
-1162
-1159
-1161
-1161
-1158
-1159
-1158
-1157
-1155
-1157
-1155
-1153
-1153
-1151
-1152
-1150
-1150
-1149
-1149
-1148
-1145
-1146
-1145
-1144
-1144
-1143
-1143
-1143
-1142
-1140
-1142
-1139
-1138
-1138
-1139
-1136
-1136
-1135
-1134
-1132
-1131
-1132
-1130
-1129
-1130
-1129
-1128
-1130
-1125
-1125
-1125
-1125
-1124
-1121
-1124
-1123
-1118
-1120
-1118
-1119
-1118
-1116
-1115
-1115
-1114
-1113
-1114
-1112
-1113
-1112
-1109
-1111
-1108
-1108
-1107
-1105
-1106
-1105
-1105
-1103
-1103
-1103
-1101
-1100
-1101
-1100
-1098
-1099
-1096
-1097
-1098
-1095
-1094
-1092
-1093
-1091
-1092
-1090
-1091
-1089
-1089
-1089
-1088
-1086
-1086
-1084
-1083
-1083
-1082
-1082
-1081
-1081
-1082
-1080
-1078
-1078
-1078
-1076
-1075
-1076
-1074
-1074
-1073
-1074
-1073
-1070
-1071
-1069
-1067
-1067
-1067
-1067
-1066
-1065
-1065
-1062
-1063
-1063
-1063
-1060
-1060
-1062
-1058
-1058
-1056
-1055
-1057
-1054
-1054
-1054
-1051
-1053
-1051€
-1052
-1051
-1049
-1048
-1047
-1046
-1046
-1046
-1045
-1044
-1044
-1042
-1041
-1041
-1041
-1041
-1039
-1040
-1038
-1038
-1038
-1037
-1036
-1035
-1034
-1032
-1032
-1031
-1031
-1030
-1029
-1029
-1028
-1027
-1027
-1027
-1025
-1027
-1025
-1024
-1021
-1021
-1021
-1020
-1021
-1019
-1019
-1018
-1015
-1016
-1014
-1015
-1014
-1011
-1012
-1012
-1012
-1011
-1011
-1010
-1006
-1006
-1006
-1004
-1005
-1006
-1002
-1002
-1003
-1000
-1002
-1001
-1002
-1000
-999
-998
-998
-998
-996
-998
-995
-995
-993
-993
-993
-992
-991
-992
-989
-990
-989
-989
-988
-987
-985
-985
-985
-984
-983
-982
-982
-982
-981
-978
-979
-978
-977
-978
-976
-975
-973
-974
-972
-973
-973
-972
-970
-969
-969
-966
-967
-968
-967
-966
-965
-965
-964
-963
-962
-963
-961
-961
-961
-959
-960
-958
-957
-956
-955
-954
-954
-953
-955
-954
-952
-951
-950
-949
-950
-948
-948
-948
-947
-948
-946
-944
-944
-943
-943
-941
-942
-941
-941
-940
-940
-939
-937
-937
-936
-936
-933
-936
-934
-933
-932
-932
-931
-930
-930
-930
-931
-926
-926
-926
-926
-926
-925
-924
-924
-924
-923
-921
-921
-920
-921
-919
-919
-917
-918
-916
-916
-914
-915
-914
-912
-911
-911
-912
-910
-909
-909
-909
-908
-906
-907
-906
-905
-904
-905
-903
-902
-902
-901
-901
-900
-898
-898
-899
-898
-898
-897
-897
-896
-893
-895
-894
-891
-893
-891
-891
-890
-889
-889
-888
-888
-886
-887
-885
-885
-884
-884
-882
-882
-881
-880
-881
-880
-880
-879
-877
-878
-877
-877
-876
-877
-876
-874
-874
-873
-873
-871
-869
-870
-869
-868
-870
-867
-866
-867
-866
-865
-864
-864
-863
-864
-861
-861
-860
-859
-860
-859
-856
-859
-856
-856
-855
-855
-854
-853
-853
-853
-852
-851
-849
-852
-849
-848
-848
-848
-847
-845
-847
-844
-846
-845
-844
-843
-842
-841
-839
-839
-841
-840
-838
-837
-836
-836
-836
-835
-835
-834
-833
-833
-832
-831
-831
-831
-828
-829
-828
-828
-827
-826
-825
-826
-824
-823
-824
-823
-821
-821
-821
-819
-820
-820
-820
-818
-817
-815
-817
-815
-815
-814
-814
-812
-813
-811
-812
-812
-811
-810
-809
-808
-809
-808
-807
-806
-807
-806
-806
-804
-805
-803
-803
-801
-800
-801
-800
-799
-800
-798
-797
-796
-795
-795
-794
-796
-793
-792
-793
-792
-793
-792
-791
-789
-788
-787
-787
-789
-787
-787
-786
-785
-784
-784
-783
-782
-780
-781
-781
-779
-779
-779
-778
-777
-776
-776
-776
-775
-775
-775
-774
-773
-772
-772
-771
-772
-771
-769
-770
-769
-769
-768
-767
-767
-764
-765
-764
-765
-765
-764
-763
-764
-760
-762
-762
-759
-760
-758
-759
-757
-757
-755
-755
-755
-755
-753
-754
-753
-753
-752
-752
-750
-752
-749
-749
-750
-748
-747
-748
-747
-745
-746
-743
-743
-744
-743
-742
-741
-743
-740
-739
-738
-738
-738
-738
-737
-735
-736
-733
-735
-735
-732
-731
-733
-733
-731
-730
-731
-730
-729
-730
-728
-728
-729
-727
-727
-728
-726
-725
-724
-723
-724
-723
-723
-722
-719
-720
-720
-717
-719
-719
-717
-719
-715
-715
-716
-715
-715
-713
-712
-713
-713
-713
-710
-710
-710
-710
-708
-709
-707
-706
-707
-707
-703
-705
-705
-704
-703
-703
-702
-703
-700
-702
-701
-699
-700
-699
-699
-699
-696
-697
-697
-695
-694
-696
-693
-693
-693
-692
-691
-692
-691
-689
-691
-691
-691
-688
-691
-688
-687
-687
-686
-685
-684
-685
-684
-683
-685
-683
-683
-684
-682
-680
-680
-680
-679
-679
-681
-679
-677
-677
-677
-674
-673
-676
-674
-672
-673
-674
-672
-672
-670
-670
-671
-670
-671
-669
-670
-668
-667
-667
-665
-664
-665
-666
-665
-663
-662
-664
-662
-660
-659
-661
-662
-658
-661
-658
-658
-658
-656
-655
-656
-657
-655
-656
-654
-655
-653
-653
-652
-652
-649
-652
-652
-649
-650
-649
-649
-648
-648
-645
-645
-644
-645
-644
-645
-643
-643
-642
-641
-641
-641
-642
-642
-639
-637
-638
-639
-637
-638
-637
-634
-635
-635
-634
-634
-635
-633
-633
-633
-632
-632
-633
-632
-630
-629
-627
-628
-627
-626
-627
-625
-625
-626
-625
-624
-623
-623
-624
-624
-621
-622
-621
-620
-621
-619
-620
-619
-619
-616
-618
-617
-615
-615
-615
-615
-613
-614
-614
-615
-612
-610
-611
-612
-612
-610
-611
-610
-609
-609
-608
-608
-607
-606
-606
-607
-604
-606
-605
-604
-603
-603
-604
-601
-602
-602
-601
-600
-602
-599
-599
-599
-597
-599
-598
-596
-596
-597
-595
-595
-595
-594
-594
-594
-594
-592
-590
-590
-588
-590
-588
-589
-590
-588
-589
-588
-586
-588
-587
-585
-585
-587
-585
-584
-582
-582
-582
-581
-581
-581
-580
-580
-581
-580
-580
-579
-579
-578
-577
-578
-579
-578
-576
-574
-574
-573
-573
-574
-574
-571
-571
-572
-573
-571
-571
-568
-569
-569
-569
-569
-567
-566
-567
-566
-567
-565
-565
-566
-564
-562
-563
-563
-561
-562
-561
-561
-561
-559
-560
-560
-558
-558
-559
-557
-555
-557
-557
-556
-553
-554
-555
-552
-554
-552
-551
-552
-553
-553
-551
-551
-550
-548
-550
-549
-548
-547
-548
-546
-548
-545
-546
-545
-544
-544
-543
-543
-542
-542
-540
-541
-540
-541
-541
-539
-540
-537
-538
-538
-537
-537
-536
-537
-536
-534
-535
-533
-534
-533
-535
-533
-533
-532
-531
-532
-532
-531
-531
-530
-531
-529
-529
-527
-526
-528
-527
-526
-527
-526
-526
-525
-525
-525
-524
-524
-525
-524
-522
-522
-521
-519
-521
-520
-519
-519
-519
-518
-519
-517
-516
-517
-517
-516
-516
-515
-514
-515
-514
-513
-514
-514
-512
-512
-511
-512
-509
-510
-509
-509
-508
-508
-508
-507
-506
-507
-506
-505
-505
-505
-503
-505
-503
-502
-503
-502
-501
-502
-503
-501
-501
-502
-501
-499
-499
-498
-497
-497
-499
-497
-498
-498
-496
-496
-495
-495
-494
-493
-494
-495
-493
-493
-492
-492
-492
-491
-491
-490
-490
-487
-489
-489
-488
-489
-487
-487
-486
-488
-485
-485
-484
-483
-484
-484
-483
-483
-483
-483
-482
-481
-480
-482
-481
-481
-480
-479
-478
-480
-479
-478
-477
-477
-477
-478
-476
-476
-475
-476
-474
-473
-475
-474
-473
-472
-472
-472
-473
-471
-471
-469
-471
-470
-468
-468
-466
-469
-465
-466
-466
-464
-467
-465
-464
-465
-465
-465
-464
-464
-462
-462
-462
-462
-461
-462
-462
-460
-460
-459
-459
-459
-458
-460
-459
-457
-458
-458
-455
-455
-456
-456
-454
-456
-454
-454
-452
-453
-452
-454
-452
-450
-451
-451
-451
-450
-451
-451
-450
-447
-449
-446
-448
-447
-447
-446
-447
-446
-446
-444
-445
-444
-445
-444
-443
-443
-443
-443
-444
-442
-440
-442
-441
-439
-440
-439
-439
-440
-439
-438
-438
-439
-437
-437
-437
-436
-436
-436
-435
-434
-435
-436
-434
-434
-433
-434
-433
-432
-434
-433
-431
-430
-433
-431
-430
-430
-431
-430
-427
-429
-431
-427
-426
-427
-427
-428
-426
-426
-424
-426
-424
-425
-424
-423
-423
-424
-421
-422
-422
-420
-421
-421
-419
-419
-421
-421
-419
-419
-419
-418
-416
-416
-418
-417
-416
-417
-417
-415
-415
-416
-415
-414
-414
-413
-414
-414
-412
-411
-412
-412
-412
-412
-410
-411
-410
-410
-410
-409
-409
-408
-408
-410
-407
-407
-407
-407
-406
-404
-406
-405
-405
-405
-404
-405
-404
-403
-403
-402
-401
-402
-401
-401
-401
-401
-399
-400
-400
-400
-400
-398
-398
-397
-399
-396
-396
-396
-394
-395
-396
-394
-394
-394
-392
-392
-394
-393
-391
-393
-392
-390
-392
-392
-390
-389
-389
-390
-389
-389
-388
-386
-388
-386
-386
-385
-386
-385
-385
-384
-384
-384
-384
-383
-383
-383
-383
-381
-382
-381
-382
-382
-381
-380
-380
-380
-379
-380
-379
-380
-378
-379
-377
-377
-375
-377
-376
-377
-377
-375
-377
-374
-374
-374
-376
-375
-373
-374
-373
-371
-372
-372
-371
-372
-371
-372
-370
-370
-370
-371
-369
-369
-368
-368
-369
-368
-369
-367
-366
-367
-365
-367
-368
-365
-366
-365
-364
-365
-363
-363
-363
-363
-363
-363
-361
-363
-362
-362
-363
-362
-361
-361
-360
-361
-359
-359
-359
-360
-357
-360
-358
-359
-358
-357
-360
-359
-358
-357
-356
-354
-354
-355
-354
-354
-353
-354
-353
-352
-354
-353
-352
-351
-353
-350
-351
-350
-349
-351
-350
-349
-349
-348
-349
-348
-348
-346
-349
-347
-348
-348
-346
-346
-345
-346
-345
-345
-343
-344
-342
-343
-344
-343
-342
-341
-341
-344
-342
-341
-339
-338
-340
-341
-341
-339
-339
-338
-339
-340
-339
-338
-337
-337
-337
-337
-336
-337
-335
-335
-336
-336
-335
-334
-332
-332
-334
-335
-334
-334
-331
-333
-331
-332
-333
-331
-331
-330
-331
-331
-328
-329
-329
-328
-329
-330
-329
-327
-328
-329
-326
-327
-325
-325
-327
-325
-325
-326
-323
-323
-326
-324
-325
-325
-324
-322
-324
-323
-322
-325
-323
-321
-321
-320
-322
-322
-320
-320
-321
-319
-319
-320
-319
-318
-320
-317
-319
-317
-317
-316
-315
-315
-315
-316
-316
-314
-313
-314
-314
-314
-314
-313
-313
-313
-313
-312
-311
-313
-313
-312
-313
-310
-311
-310
-311
-309
-310
-309
-310
-309
-310
-308
-309
-307
-307
-309
-305
-307
-306
-306
-307
-306
-305
-306
-305
-305
-305
-305
-303
-303
-302
-303
-304
-303
-302
-303
-301
-302
-301
-301
-302
-300
-299
-299
-299
-300
-299
-300
-299
-299
-298
-298
-298
-298
-298
-298
-296
-296
-297
-296
-298
-297
-297
-296
-295
-295
-294
-297
-293
-294
-293
-292
-292
-294
-293
-292
-292
-292
-291
-292
-291
-292
-291
-291
-290
-289
-290
-289
-291
-290
-286
-290
-290
-289
-287
-288
-287
-288
-286
-286
-287
-287
-287
-286
-286
-286
-284
-286
-282
-284
-283
-282
-283
-282
-282
-283
-281
-282
-282
-284
-282
-280
-280
-281
-280
-280
-279
-279
-280
-280
-280
-279
-278
-278
-277
-278
-277
-278
-277
-277
-278
-277
-276
-276
-275
-274
-275
-276
-273
-273
-274
-275
-272
-273
-275
-273
-271
-273
-274
-274
-273
-271
-272
-271
-270
-271
-272
-271
-269
-270
-269
-270
-270
-271
-269
-269
-266
-268
-267
-267
-269
-267
-267
-266
-266
-267
-267
-266
-266
-265
-265
-265
-265
-265
-264
-264
-264
-264
-263
-263
-263
-263
-262
-264
-262
-261
-262
-263
-261
-262
-262
-260
-260
-261
-259
-261
-260
-260
-259
-258
-258
-256
-258
-258
-258
-259
-258
-256
-257
-259
-257
-256
-255
-256
-255
-254
-254
-255
-255
-254
-253
-253
-253
-254
-253
-252
-254
-253
-253
-251
-252
-252
-252
-251
-251
-252
-251
-250
-251
-251
-251
-250
-250
-251
-248
-249
-248
-248
-248
-248
-248
-248
-247
-247
-248
-247
-247
-247
-246
-246
-245
-244
-246
-245
-246
-245
-245
-245
-244
-245
-243
-245
-245
-245
-243
-242
-242
-243
-242
-242
-241
-241
-242
-242
-242
-241
-240
-240
-241
-240
-240
-240
-240
-239
-240
-239
-238
-240
-238
-238
-239
-238
-237
-236
-237
-237
-236
-237
-234
-237
-236
-237
-235
-235
-236
-234
-234
-234
-235
-234
-235
-234
-232
-235
-232
-235
-232
-234
-230
-238
-225
-241
-216
-260
-182
-435
-1451
-1467
-1551
-1594
-1684
-1776
-1888
-1994
-2081
-2150
-2229
-2321
-2421
-2523
-2607
-2663
-2713
-2769
-2847
-2944
-3044
-3163
-3302
-3449
-3599
-3751
-3899
-4037
-4146
-4200
-4210
-4175
-4094
-3972
-3819
-3643
-3444
-3233
-3036
-2835
-2633
-2445
-2274
-2120
-1985
-1850
-1701
-1548
-1386
-1235
-1084
-912
-715
-504
-293
-79
153
402
691
992
1286
1567
1814
2064
2325
2556
2780
2999
3188
3365
3520
3649
3755
3825
3861
3867
3841
3786
3692
3547
3382
3203
3007
2784
2543
2296
2053
1825
1619
1433
1257
1102
965
840
742
673
609
558
508
455
405
348
291
222
138
36
-76
-197
-324
-462
-615
-772
-930
-1086
-1238
-1393
-1551
-1701
-1846
-1986
-2111
-2230
-2336
-2423
-2497
-2554
-2591
-2614
-2609
-2578
-2527
-2452
-2351
-2225
-2072
-1900
-1718
-1517
-1310
-1099
-883
-663
-440
-218
-5
201
393
566
729
871
981
1076
1143
1190
1217
1215
1188
1138
1063
970
858
721
560
380
192
7
-161
-318
-471
-624
-768
-895
-996
-1071
-1125
-1164
-1183
-1179
-1151
-1110
-1070
-1028
-972
-902
-824
-737
-660
-598
-542
-486
-426
-369
-329
-298
-276
-263
-255
-250
-253
-264
-280
-301
-329
-364
-400
-445
-493
-548
-602
-649
-696
-738
-775
-810
-831
-828
-815
-797
-783
-764
-735
-707
-677
-648
-629
-609
-583
-559
-530
-512
-503
-493
-489
-487
-494
-513
-542
-578
-627
-676
-733
-795
-854
-914
-978
-1042
-1099
-1151
-1193
-1232
-1257
-1279
-1295
-1296
-1278
-1251
-1206
-1147
-1076
-999
-913
-824
-735
-645
-565
-493
-435
-391
-353
-327
-307
-297
-296
-293
-288
-279
-271
-267
-260
-253
-241
-233
-236
-241
-255
-265
-273
-282
-304
-343
-387
-427
-458
-487
-519
-552
-578
-595
-592
-580
-567
-553
-534
-507
-472
-436
-405
-376
-357
-341
-325
-317
-318
-335
-367
-410
-459
-516
-585
-657
-735
-816
-895
-978
-1051
-1112
-1170
-1220
-1259
-1283
-1297
-1299
-1301
-1297
-1272
-1230
-1179
-1120
-1061
-996
-924
-842
-756
-666
-580
-492
-395
-301
-201
-112
-46
5
51
88
108
101
70
25
-38
-101
-162
-231
-307
-382
-455
-522
-578
-633
-670
-704
-725
-740
-752
-752
-735
-706
-660
-601
-550
-497
-447
-391
-331
-271
-208
-152
-104
-59
-10
31
63
82
89
95
91
85
66
30
-12
-52
-99
-150
-204
-249
-308
-368
-408
-457
-508
-566
-629
-675
-697
-712
-721
-726
-720
-696
-656
-610
-570
-526
-484
-442
-395
-353
-315
-278
-240
-199
-153
-106
-63
-22
15
50
79
98
116
129
128
119
102
74
43
4
-51
-111
-171
-217
-262
-317
-376
-433
-467
-472
-469
-448
-427
-394
-358
-316
-271
-226
-191
-147
-84
-6
81
159
225
262
270
260
238
217
202
189
168
134
85
28
-30
-86
-139
-199
-263
-322
-378
-429
-474
-522
-566
-613
-654
-686
-715
-730
-729
-726
-722
-704
-676
-635
-584
-541
-494
-453
-418
-386
-364
-350
-340
-344
-347
-365
-390
-415
-448
-474
-507
-548
-596
-648
-698
-739
-765
-786
-820
-856
-883
-905
-909
-905
-894
-875
-841
-795
-735
-664
-591
-521
-451
-375
-291
-211
-141
-78
-18
34
77
116
141
149
147
127
104
82
52
15
-24
-69
-120
-174
-233
-290
-347
-399
-438
-470
-495
-515
-541
-556
-544
-513
-465
-407
-345
-269
-184
-79
31
140
242
335
439
541
633
714
791
870
950
1032
1095
1130
1145
1145
1141
1129
1109
1072
1024
966
896
821
741
664
600
529
466
406
348
306
278
258
249
248
247
257
276
301
332
369
404
435
469
503
536
567
598
614
626
632
627
623
611
593
567
534
496
443
373
293
206
125
57
-13
-89
-174
-261
-335
-387
-424
-451
-468
-474
-461
-429
-391
-356
-324
-285
-242
-185
-166
-240
-373
-418
-260
51
340
483
477
386
285
198
124
38
-66
-195
-336
-473
-592
-692
-773
-840
-891
-924
-935
-929
-915
-902
-888
-859
-817
-766
-712
-664
-620
-576
-526
-468
-417
-368
-316
-258
-197
-137
-93
-78
-90
-114
-107
-52
16
49
14
-78
-197
-324
-443
-557
-675
-789
-907
-1020
-1118
-1202
-1268
-1315
-1353
-1374
-1378
-1374
-1359
-1318
-1264
-1206
-1150
-1083
-999
-914
-830
-763
-719
-697
-679
-643
-568
-476
-402
-368
-377
-409
-455
-502
-553
-614
-680
-762
-852
-961
-1073
-1179
-1263
-1335
-1417
-1498
-1575
-1632
-1663
-1672
-1667
-1644
-1601
-1540
-1482
-1423
-1364
-1316
-1243
-1168
-1090
-1008
-937
-865
-785
-679
-547
-405
-276
-177
-104
-45
14
64
101
125
139
145
134
107
69
33
6
-17
-46
-59
-64
-65
-59
-44
-8
56
135
232
349
482
644
826
1017
1205
1380
1525
1651
1765
1881
2026
2218
2442
2635
2745
2792
2820
2877
2994
3091
3022
2720
2223
1596
925
243
-453
-1149
-1791
-2326
-2693
-3058
-3887
-4935
-5519
-5550
-5267
-4854
-4438
-4047
-3662
-3282
-2934
-2639
-2403
-2193
-1985
-1773
-1547
-1329
-1115
-895
-667
-438
-205
25
254
471
679
888
1078
1250
1388
1507
1607
1695
1785
1858
1908
1932
1941
1960
1989
2023
2062
2098
2130
2178
2240
2298
2352
2397
2438
2485
2532
2581
2627
2669
2705
2739
2770
2781
2766
2721
2647
2546
2415
2259
2084
1886
1671
1441
1190
934
681
423
165
-90
-332
-557
-774
-976
-1165
-1320
-1444
-1536
-1594
-1625
-1633
-1611
-1561
-1499
-1421
-1343
-1268
-1192
-1119
-1048
-987
-946
-916
-900
-898
-904
-929
-977
-1042
-1126
-1227
-1340
-1466
-1604
-1754
-1920
-2092
-2262
-2422
-2573
-2711
-2831
-2928
-3000
-3044
-3057
-3044
-3000
-2933
-2844
-2731
-2598
-2450
-2281
-2103
-1927
-1748
-1554
-1365
-1166
-970
-782
-602
-435
-279
-144
-21
82
165
248
319
378
426
459
483
505
535
563
580
584
581
579
588
597
609
621
631
652
688
727
758
788
824
860
899
936
962
984
1010
1034
1058
1080
1090
1091
1077
1048
1006
952
884
801
712
618
514
406
299
193
90
-8
-91
-164
-239
-302
-368
-419
-456
-485
-503
-508
-500
-484
-453
-407
-348
-283
-216
-139
-59
17
95
164
224
284
330
360
377
377
373
357
324
281
219
143
58
-43
-157
-271
-382
-486
-588
-681
-772
-844
-900
-935
-954
-950
-923
-878
-825
-757
-668
-572
-459
-350
-245
-141
-47
43
131
205
264
312
352
367
365
350
320
282
241
197
135
61
-10
-81
-149
-198
-240
-295
-350
-406
-434
-441
-441
-443
-433
-418
-400
-378
-371
-375
-378
-364
-311
-219
-96
21
123
211
287
364
436
503
560
598
621
621
609
589
571
542
501
465
429
400
377
353
340
337
341
359
375
404
446
505
580
651
715
781
854
932
1015
1098
1173
1248
1318
1381
1431
1465
1490
1500
1498
1483
1450
1397
1326
1236
1130
1013
889
754
617
475
332
197
65
-60
-173
-281
-375
-453
-516
-565
-598
-620
-633
-640
-650
-642
-621
-584
-534
-481
-421
-354
-289
-218
-147
-82
-18
39
88
123
152
170
173
176
170
147
108
51
-21
-87
-144
-198
-258
-327
-393
-444
-476
-492
-501
-508
-501
-481
-447
-412
-391
-366
-329
-288
-236
-186
-140
-97
-51
-11
33
70
88
91
77
58
25
-17
-65
-120
-182
-251
-331
-410
-489
-566
-631
-692
-740
-773
-800
-815
-818
-803
-767
-718
-653
-581
-506
-418
-319
-218
-129
-51
25
107
181
245
306
354
392
423
441
445
431
399
359
307
248
180
101
11
-86
-185
-283
-377
-466
-546
-619
-675
-710
-720
-712
-688
-641
-583
-510
-427
-340
-240
-124
-3
118
238
350
462
577
682
782
869
949
1017
1068
1104
1123
1131
1126
1105
1063
1001
923
837
759
685
614
540
457
375
305
263
242
232
235
251
275
309
333
343
343
342
351
359
358
353
345
331
324
329
333
338
337
327
321
313
300
284
263
232
188
132
66
-3
-76
-142
-202
-247
-285
-315
-341
-349
-331
-293
-236
-167
-92
-6
86
184
282
381
473
573
668
760
838
931
979
950
964
1013
1056
1084
1083
1046
1001
958
914
871
817
753
694
630
572
519
470
424
389
365
362
372
384
409
442
481
526
572
631
697
769
841
912
978
1039
1094
1132
1170
1199
1214
1222
1213
1186
1151
1102
1043
983
912
827
734
642
566
501
432
361
289
209
148
106
73
52
40
41
56
84
111
142
179
220
275
331
384
433
483
527
567
601
632
654
666
668
663
643
615
579
525
459
377
273
160
40
-83
-202
-329
-456
-583
-708
-822
-925
-1007
-1076
-1132
-1177
-1217
-1243
-1258
-1253
-1227
-1198
-1167
-1124
-1076
-1032
-982
-914
-826
-737
-658
-595
-544
-509
-516
-561
-629
-703
-792
-909
-1047
-1195
-1344
-1497
-1655
-1787
-1871
-1929
-1969
-1981
-1956
-1884
-1768
-1626
-1471
-1299
-1107
-894
-666
-437
-221
-16
169
337
493
620
717
787
835
858
862
844
806
756
719
630
444
275
138
8
-141
-269
-372
-481
-596
-701
-779
-835
-860
-857
-830
-767
-671
-566
-465
-363
-260
-148
-18
122
260
392
510
610
697
759
795
805
756
641
577
564
542
513
465
391
312
232
163
108
63
27
0
-19
-30
-34
-25
0
-7
-71
-117
-101
13
188
336
438
504
553
619
690
759
813
854
894
928
950
943
910
865
812
752
684
613
528
425
317
207
100
1
-86
-170
-244
-316
-378
-418
-446
-460
-459
-452
-437
-417
-396
-377
-351
-324
-298
-278
-260
-244
-233
-232
-237
-252
-278
-314
-368
-448
-544
-658
-777
-900
-1043
-1188
-1343
-1489
-1606
-1710
-1794
-1875
-1952
-2014
-2053
-2069
-2068
-2058
-2037
-2002
-1948
-1881
-1810
-1738
-1662
-1578
-1487
-1411
-1343
-1291
-1247
-1206
-1163
-1119
-1076
-1023
-964
-905
-841
-779
-718
-653
-592
-542
-495
-457
-429
-397
-366
-333
-294
-257
-217
-173
-121
-50
29
115
207
296
389
484
576
674
773
864
950
1035
1113
1184
1259
1334
1426
1510
1561
1579
1538
1448
1325
1170
991
798
609
425
242
70
-97
-251
-387
-506
-608
-694
-761
-811
-849
-871
-879
-871
-856
-836
-806
-765
-711
-651
-579
-497
-409
-314
-217
-119
-22
76
165
250
327
388
442
483
509
517
502
470
424
382
338
286
224
141
60
-13
-80
-135
-184
-227
-248
-255
-243
-232
-224
-211
-185
-153
-116
-90
-73
-67
-62
-55
-46
-51
-60
-77
-108
-140
-186
-236
-290
-341
-394
-453
-517
-578
-640
-693
-739
-777
-802
-824
-837
-836
-811
-767
-703
-627
-544
-457
-362
-254
-142
-27
90
209
336
455
559
657
746
836
916
981
1021
1042
1043
1027
997
959
908
842
768
684
601
519
442
359
281
213
150
103
69
45
38
42
54
70
91
108
131
158
184
207
229
250
269
281
289
291
286
270
246
218
176
130
78
18
-48
-126
-211
-291
-356
-402
-446
-495
-549
-608
-654
-682
-702
-715
-711
-694
-670
-631
-599
-577
-552
-530
-499
-467
-449
-437
-429
-428
-419
-411
-415
-427
-446
-472
-504
-542
-578
-614
-644
-677
-710
-742
-773
-793
-801
-796
-782
-761
-745
-728
-696
-644
-578
-500
-409
-320
-225
-123
-21
88
199
303
410
508
589
656
711
762
807
842
871
885
884
878
865
856
836
801
757
709
650
592
536
476
417
360
312
273
250
241
247
274
309
359
419
478
546
626
710
787
865
938
1014
1090
1162
1226
1277
1322
1350
1368
1371
1352
1320
1272
1208
1132
1040
931
823
715
597
473
337
206
102
18
-44
-90
-117
-117
-91
-34
38
121
212
325
457
591
716
824
925
1014
1092
1171
1237
1315
1344
1260
1199
1181
1159
1131
1075
970
843
734
639
568
504
433
362
295
226
163
117
90
79
84
95
116
149
191
239
294
354
409
468
518
553
580
592
599
597
575
533
471
385
287
182
81
-16
-126
-242
-367
-497
-618
-737
-850
-944
-1017
-1076
-1124
-1151
-1162
-1165
-1165
-1165
-1153
-1142
-1128
-1114
-1092
-1059
-1019
-974
-911
-848
-812
-782
-735
-664
-585
-511
-448
-411
-398
-391
-391
-410
-444
-499
-569
-620
-664
-698
-734
-791
-848
-891
-924
-949
-962
-964
-950
-918
-868
-811
-748
-669
-574
-463
-342
-220
-102
20
140
254
360
457
552
634
703
754
792
825
853
869
878
879
870
858
839
811
784
745
698
647
594
551
527
522
542
581
642
717
801
894
996
1094
1200
1301
1388
1466
1530
1580
1626
1653
1662
1650
1610
1552
1483
1406
1315
1207
1090
960
828
701
576
458
345
236
142
57
-14
-73
-118
-145
-162
-167
-166
-162
-149
-116
-80
-45
-6
18
33
37
28
15
-8
-44
-88
-143
-202
-259
-322
-389
-464
-551
-639
-727
-799
-866
-931
-1003
-1081
-1153
-1204
-1239
-1262
-1269
-1263
-1235
-1188
-1126
-1064
-997
-915
-823
-714
-607
-506
-412
-326
-252
-190
-144
-121
-102
-105
-124
-148
-181
-217
-263
-303
-352
-479
-615
-788
-1008
-1222
-1351
-1352
-1301
-1219
-1099
-959
-828
-695
-563
-451
-338
-222
-115
-5
92
176
257
325
376
415
446
467
488
492
483
455
409
352
291
234
178
111
35
-51
-145
-238
-328
-414
-495
-571
-636
-689
-718
-728
-719
-686
-635
-563
-473
-377
-276
-156
-29
103
235
361
488
608
723
835
930
1014
1075
1110
1124
1115
1089
1047
988
912
822
736
656
586
517
436
353
283
228
188
153
127
109
104
119
141
166
199
234
285
347
403
456
503
545
582
617
645
667
678
674
660
640
604
567
518
452
391
324
261
206
148
91
48
10
-20
-42
-55
-53
-43
-16
12
41
80
119
148
183
218
249
290
321
346
377
405
440
480
508
523
532
528
520
516
508
490
458
416
368
326
283
246
208
173
137
109
94
87
83
92
104
122
142
167
191
221
261
294
331
370
407
444
481
516
547
575
595
601
594
584
567
538
497
436
359
286
222
160
92
17
-69
-152
-216
-257
-276
-291
-294
-283
-250
-204
-151
-101
-41
27
102
170
231
285
337
387
431
467
491
504
497
486
463
424
378
324
248
152
45
-71
-194
-314
-430
-532
-630
-728
-816
-886
-933
-963
-978
-981
-975
-957
-931
-892
-846
-790
-720
-645
-571
-496
-431
-364
-293
-227
-163
-111
-72
-51
-45
-54
-78
-118
-180
-258
-356
-456
-557
-654
-751
-846
-931
-1004
-1056
-1085
-1103
-1097
-1073
-1032
-968
-891
-799
-697
-587
-475
-364
-248
-141
-31
67
156
246
332
410
472
525
566
585
593
588
560
524
476
436
406
370
334
288
238
208
188
179
185
189
206
244
293
346
401
462
525
595
667
731
790
847
904
963
1017
1069
1115
1150
1165
1167
1163
1154
1141
1110
1067
1010
939
869
790
711
636
560
481
408
345
301
271
255
252
257
269
291
308
328
348
365
390
411
418
426
426
428
434
429
418
393
355
312
270
228
170
104
28
-49
-128
-201
-277
-348
-416
-470
-510
-538
-553
-557
-544
-520
-482
-439
-383
-315
-233
-143
-56
32
125
212
295
372
441
500
543
573
586
585
573
552
517
470
407
334
263
205
143
83
13
-70
-137
-198
-248
-295
-341
-374
-389
-397
-397
-401
-406
-397
-373
-341
-308
-285
-267
-250
-235
-220
-218
-228
-251
-283
-331
-393
-469
-559
-657
-769
-896
-1025
-1154
-1281
-1398
-1512
-1618
-1715
-1809
-1889
-1947
-1988
-2004
-1998
-1985
-1955
-1906
-1849
-1772
-1687
-1606
-1515
-1421
-1331
-1244
-1165
-1079
-996
-923
-854
-799
-757
-724
-700
-675
-649
-635
-634
-636
-640
-642
-642
-644
-638
-629
-615
-585
-546
-500
-435
-360
-287
-217
-140
-57
24
109
193
277
352
439
522
591
656
708
743
762
748
713
653
578
494
382
252
94
-80
-250
-401
-517
-602
-656
-672
-627
-514
-352
-127
140
434
774
1146
1535
1925
2305
2684
3043
3360
3616
3798
3902
3939
3897
3765
3551
3272
2939
2567
2171
1760
1351
968
623
347
59
-255
-471
-597
-676
-717
-754
-799
-829
-817
-770
-702
-630
-560
-477
-375
-248
-103
54
208
352
475
566
621
647
644
610
552
470
370
244
101
-60
-225
-382
-531
-676
-802
-906
-999
-1082
-1169
-1237
-1279
-1277
-1240
-1189
-1126
-1054
-964
-847
-693
-510
-323
-137
36
195
356
516
676
832
986
1150
1328
1523
1731
1938
2140
2342
2542
2736
2910
3052
3157
3239
3303
3329
3303
3208
3041
2810
2535
2240
1930
1612
1282
949
619
310
31
-207
-396
-543
-661
-760
-837
-887
-906
-900
-866
-806
-710
-601
-487
-370
-260
-167
-84
-29
-7
-11
-42
-102
-193
-299
-404
-513
-634
-775
-918
-1056
-1177
-1281
-1370
-1447
-1501
-1527
-1547
-1574
-1611
-1657
-1698
-1727
-1738
-1726
-1688
-1626
-1544
-1445
-1334
-1220
-1113
-1005
-895
-798
-715
-654
-608
-578
-555
-535
-520
-512
-502
-495
-475
-446
-408
-358
-289
-203
-108
1
102
201
305
413
529
641
737
836
944
1052
1154
1231
1294
1345
1383
1418
1442
1447
1436
1406
1361
1303
1255
1227
1212
1188
1127
1017
894
792
728
696
686
680
687
701
706
703
705
707
712
714
705
680
651
613
570
533
497
458
403
342
266
186
101
9
-92
-188
-284
-371
-455
-526
-593
-648
-693
-738
-767
-785
-788
-777
-748
-706
-653
-587
-513
-437
-355
-270
-182
-91
-12
64
137
209
285
361
436
503
553
587
611
634
648
648
630
601
568
532
504
476
450
429
422
427
454
489
528
586
640
694
742
785
825
865
894
907
916
909
894
868
821
744
656
578
514
483
429
335
233
131
34
-86
-215
-331
-441
-542
-639
-736
-832
-910
-974
-1027
-1060
-1086
-1093
-1081
-1037
-1011
-1053
-1128
-1356
-1627
-1607
-1331
-1010
-725
-524
-394
-284
-161
-59
5
42
72
105
132
129
94
36
-34
-112
-201
-285
-365
-449
-530
-616
-706
-787
-855
-906
-937
-962
-978
-986
-996
-1000
-997
-984
-961
-928
-898
-861
-813
-760
-703
-649
-606
-578
-560
-556
-559
-566
-579
-601
-632
-672
-703
-720
-733
-738
-743
-748
-742
-721
-698
-660
-603
-540
-470
-392
-323
-247
-165
-87
-5
79
159
236
315
388
453
512
561
597
624
640
642
629
601
558
501
443
382
319
255
184
114
57
19
-38
-115
-152
-165
-179
-181
-186
-224
-304
-397
-370
-159
108
374
597
751
880
1028
1167
1281
1369
1432
1474
1490
1483
1444
1376
1281
1178
1067
950
830
702
574
441
321
204
106
38
-2
-20
-26
-32
-15
12
42
75
106
140
167
192
215
229
235
240
243
227
195
156
114
64
6
-50
-114
-183
-237
-278
-321
-368
-422
-462
-488
-506
-509
-528
-546
-542
-528
-495
-435
-386
-367
-313
-235
-175
-112
-56
-20
-27
-14
117
316
497
636
717
756
785
806
798
757
699
614
537
476
415
335
235
126
34
-46
-101
-140
-177
-208
-226
-227
-220
-213
-197
-170
-136
-102
-72
-47
-20
4
29
52
68
69
56
25
-24
-75
-135
-210
-294
-383
-473
-556
-636
-704
-767
-823
-872
-910
-930
-928
-908
-862
-800
-727
-638
-540
-432
-321
-205
-83
38
151
251
334
401
463
507
535
551
548
533
515
493
465
432
390
344
300
258
209
152
94
35
-16
-57
-93
-132
-157
-169
-170
-167
-158
-138
-117
-89
-60
-35
-15
2
15
23
31
27
20
13
-5
-27
-50
-94
-155
-230
-321
-418
-504
-598
-683
-778
-885
-979
-1051
-1098
-1119
-1128
-1121
-1090
-1035
-961
-881
-792
-691
-579
-458
-328
-203
-90
19
112
198
268
320
353
367
367
357
333
299
256
197
131
65
-5
-76
-143
-196
-245
-283
-311
-315
-294
-252
-182
-100
-3
115
242
367
502
643
778
915
1051
1175
1281
1361
1433
1497
1542
1569
1573
1549
1508
1447
1362
1260
1141
1005
866
727
584
440
296
163
56
-39
-116
-187
-243
-279
-304
-314
-317
-308
-282
-243
-200
-153
-106
-59
-18
20
64
96
123
139
144
142
133
111
73
16
-56
-133
-202
-265
-330
-406
-484
-565
-626
-674
-709
-735
-756
-764
-748
-713
-674
-635
-589
-529
-454
-369
-283
-198
-113
-29
58
145
225
291
341
380
406
424
423
406
378
331
284
232
171
114
55
4
-46
-92
-133
-159
-177
-183
-178
-162
-132
-89
-41
17
85
159
239
314
382
444
504
565
620
669
700
714
709
690
658
610
546
455
351
242
126
8
-119
-242
-346
-435
-501
-553
-595
-606
-599
-565
-513
-454
-377
-292
-198
-99
-4
94
189
283
375
455
527
588
639
683
714
730
728
705
663
600
540
481
437
408
383
360
351
361
387
414
435
470
543
665
856
1084
1270
1366
1406
1461
1589
1820
2080
2223
2206
2053
1797
1448
989
417
-238
-906
-1529
-2088
-2561
-2960
-3284
-3528
-3692
-3786
-3820
-3824
-3823
-3818
-3793
-3728
-3622
-3474
-3289
-3066
-2807
-2508
-2177
-1809
-1409
-984
-537
-88
355
788
1198
1584
1931
2234
2494
2699
2855
2968
3040
3062
3038
2976
2886
2780
2656
2509
2348
2176
2013
1862
1721
1585
1447
1321
1205
1100
1014
939
886
843
815
794
772
750
724
687
640
574
489
391
268
129
-19
-181
-363
-563
-775
-992
-1196
-1379
-1546
-1710
-1870
-2022
-2151
-2253
-2334
-2394
-2431
-2445
-2427
-2375
-2304
-2220
-2111
-1977
-1826
-1660
-1488
-1322
-1152
-987
-831
-681
-546
-431
-338
-263
-210
-171
-149
-147
-159
-180
-209
-236
-268
-305
-332
-354
-372
-387
-390
-381
-367
-341
-308
-268
-218
-156
-86
-2
94
205
326
438
544
654
756
853
938
998
1040
1059
1053
1032
991
931
853
758
657
562
461
351
241
133
43
-30
-94
-148
-197
-236
-256
-265
-260
-237
-191
-132
-67
3
73
150
226
299
371
422
463
488
498
506
501
479
444
379
294
205
120
37
-52
-148
-250
-355
-435
-486
-517
-538
-531
-499
-440
-359
-275
-190
-98
3
114
219
320
410
497
571
637
698
746
784
812
828
829
820
785
730
668
595
513
430
335
236
140
47
-43
-126
-194
-239
-280
-295
-297
-279
-229
-165
-88
12
116
228
347
456
553
637
715
784
843
887
906
907
889
869
834
780
708
634
564
496
420
335
245
193
195
201
148
-8
-239
-456
-601
-626
-553
-460
-402
-356
-288
-170
-13
137
240
264
251
243
257
278
292
295
290
281
266
253
238
231
231
225
201
150
84
8
-73
-153
-236
-321
-412
-497
-571
-636
-695
-744
-775
-784
-777
-753
-720
-665
-587
-478
-348
-226
-131
-72
-43
-35
-26
-26
-39
-63
-108
-163
-217
-278
-340
-396
-453
-513
-559
-591
-612
-626
-634
-638
-626
-598
-555
-511
-471
-436
-401
-360
-318
-286
-238
-190
-149
-114
-86
-72
-60
-51
-40
-16
21
51
46
-3
-81
-161
-236
-284
-312
-329
-330
-310
-279
-227
-150
-61
44
153
257
371
475
563
639
696
749
793
825
860
881
890
886
867
849
831
805
766
717
653
597
554
511
470
414
358
309
277
265
257
258
263
286
335
405
495
589
667
723
767
811
847
883
928
961
981
985
983
965
931
888
835
776
710
633
556
475
391
306
219
135
43
-49
-135
-205
-258
-299
-331
-358
-362
-352
-327
-293
-255
-206
-152
-99
-47
0
42
92
132
166
193
196
182
163
141
104
50
-18
-101
-180
-265
-355
-442
-532
-642
-782
-890
-931
-943
-951
-946
-912
-852
-776
-685
-599
-520
-450
-386
-329
-280
-225
-166
-104
-36
35
111
184
261
335
391
423
438
443
449
452
453
440
413
374
335
301
270
258
243
239
251
266
288
303
317
333
357
386
410
433
457
480
499
511
515
517
508
488
460
415
361
285
192
75
-51
-189
-338
-482
-635
-779
-911
-1035
-1121
-1178
-1216
-1224
-1210
-1175
-1112
-1030
-923
-781
-634
-473
-305
-147
4
153
292
420
524
599
660
699
718
719
697
661
602
535
460
385
302
219
129
40
-41
-113
-179
-243
-297
-338
-369
-388
-395
-393
-368
-335
-307
-270
-225
-173
-115
-52
12
73
112
125
138
152
141
106
57
1
-49
-105
-167
-246
-347
-461
-569
-661
-740
-807
-871
-930
-963
-973
-969
-953
-932
-887
-819
-741
-654
-582
-511
-432
-339
-239
-141
-46
42
115
177
225
253
260
262
241
198
149
88
10
-85
-197
-312
-419
-500
-570
-625
-665
-687
-688
-675
-641
-588
-523
-439
-345
-259
-184
-111
-27
61
153
244
321
380
427
463
463
440
412
370
333
301
264
225
173
101
25
-35
-77
-125
-171
-214
-233
-219
-199
-176
-153
-143
-140
-112
-39
175
48
-701
-1255
-1183
-815
-425
-90
191
474
756
990
1120
1141
1105
1046
968
864
732
583
446
315
195
77
-30
-111
-160
-188
-202
-194
-163
-108
-36
42
113
185
254
319
385
449
508
567
615
661
700
716
709
699
677
647
605
546
485
423
352
275
207
154
114
77
48
25
17
25
41
67
117
179
247
326
397
472
543
606
662
697
716
720
711
702
677
630
561
483
406
339
264
182
94
-2
-80
-146
-202
-247
-271
-277
-266
-240
-206
-168
-118
-64
-7
46
87
127
159
187
207
210
200
179
147
105
54
-14
-93
-179
-261
-329
-392
-455
-527
-605
-672
-715
-745
-755
-759
-755
-729
-687
-634
-579
-517
-458
-390
-310
-224
-140
-63
6
73
140
204
259
297
317
318
309
290
251
196
128
50
-41
-132
-220
-318
-419
-511
-595
-653
-703
-739
-759
-772
-770
-753
-724
-680
-616
-538
-446
-349
-250
-142
-27
99
218
328
415
486
550
604
632
638
617
575
526
480
417
340
252
157
68
-15
-83
-144
-192
-219
-230
-230
-216
-196
-162
-118
-75
-32
6
51
94
141
184
222
252
291
328
367
391
390
373
336
299
265
232
186
124
60
-1
-41
-72
-95
-112
-125
-121
-101
-77
-56
-31
-1
42
95
159
229
296
362
430
503
570
630
682
714
731
740
726
696
655
610
567
520
470
420
367
308
253
202
170
148
134
134
139
149
175
207
254
313
381
457
530
597
656
710
760
800
820
822
813
788
754
699
616
521
415
314
217
115
14
-85
-172
-238
-288
-329
-349
-342
-328
-296
-257
-221
-178
-131
-83
-39
14
66
121
173
211
237
252
256
254
243
213
157
71
-33
-134
-225
-315
-411
-523
-643
-750
-836
-896
-951
-1000
-1033
-1050
-1042
-1022
-991
-950
-889
-811
-712
-610
-504
-394
-283
-174
-62
41
133
209
267
307
326
323
304
264
211
153
85
17
-50
-122
-189
-253
-305
-337
-360
-371
-373
-358
-326
-288
-228
-151
-62
41
150
264
379
498
612
716
811
883
938
975
997
997
981
941
888
826
765
696
626
550
471
403
349
301
258
233
216
210
210
210
217
236
263
295
329
356
384
413
433
446
442
419
394
371
334
278
192
79
-39
-149
-246
-345
-451
-570
-690
-788
-867
-933
-984
-1028
-1062
-1070
-1057
-1041
-1010
-968
-917
-846
-767
-688
-601
-508
-419
-323
-224
-130
-42
30
87
130
163
180
192
190
179
160
126
88
37
-21
-77
-120
-153
-183
-200
-204
-192
-165
-125
-71
-3
80
171
266
359
446
526
605
671
726
764
786
790
782
758
721
672
602
522
438
350
260
168
78
-1
-69
-133
-177
-208
-225
-231
-229
-221
-203
-170
-131
-94
-55
-20
19
57
95
120
122
121
109
93
66
18
-59
-161
-275
-379
-479
-596
-727
-882
-1036
-1173
-1299
-1414
-1513
-1607
-1670
-1702
-1710
-1693
-1660
-1606
-1535
-1449
-1343
-1226
-1099
-969
-839
-710
-585
-457
-335
-220
-116
-25
51
111
153
190
211
225
234
231
218
192
169
155
150
153
170
198
241
293
352
426
509
597
685
768
841
913
978
1034
1086
1121
1134
1136
1131
1117
1094
1050
985
911
826
737
643
541
438
336
238
163
97
38
5
-13
-16
-8
12
48
98
152
210
276
334
402
475
545
616
669
718
766
807
834
836
811
763
715
672
621
558
478
377
289
218
159
106
52
8
-24
-30
-31
-27
-18
3
39
80
128
178
223
266
304
344
381
409
435
439
435
422
391
347
297
238
173
101
26
-50
-128
-206
-271
-317
-357
-375
-387
-383
-369
-341
-300
-248
-174
-87
8
108
208
323
449
572
691
806
908
1017
1129
1222
1288
1318
1313
1289
1261
1219
1163
1091
1009
929
861
806
759
731
720
721
737
758
777
802
828
850
865
876
885
886
874
851
817
770
718
666
603
535
445
328
204
93
-2
-78
-150
-244
-358
-465
-564
-649
-710
-759
-792
-814
-830
-835
-830
-815
-772
-705
-618
-519
-415
-311
-214
-122
-27
55
120
169
201
219
217
191
150
102
46
-17
-95
-180
-274
-374
-471
-571
-658
-741
-818
-879
-934
-982
-1025
-1066
-1101
-1122
-1133
-1134
-1133
-1126
-1112
-1091
-1065
-1037
-1008
-986
-952
-913
-862
-828
-801
-776
-757
-738
-723
-724
-736
-753
-767
-773
-787
-792
-782
-770
-748
-712
-671
-615
-550
-480
-409
-342
-276
-203
-137
-77
-28
1
22
33
41
43
17
-34
-96
-155
-205
-253
-305
-376
-466
-554
-622
-669
-709
-744
-773
-787
-786
-776
-753
-728
-689
-645
-580
-514
-457
-394
-348
-313
-277
-249
-230
-216
-208
-208
-220
-239
-265
-299
-344
-387
-428
-472
-525
-578
-636
-690
-733
-773
-809
-838
-855
-856
-844
-824
-786
-738
-668
-592
-511
-430
-354
-272
-186
-98
-22
38
89
134
173
204
216
214
206
187
172
158
140
121
112
105
105
106
114
129
149
175
205
233
275
325
378
440
514
601
695
791
879
956
1015
1067
1119
1160
1185
1178
1142
1080
1013
951
881
798
698
578
467
373
290
216
149
93
53
34
33
43
63
97
139
189
239
292
347
396
437
472
505
528
542
534
511
474
415
348
274
194
107
6
-100
-198
-306
-411
-510
-599
-672
-734
-788
-834
-874
-898
-911
-915
-897
-875
-841
-796
-755
-708
-662
-619
-577
-547
-530
-517
-507
-502
-505
-523
-557
-592
-623
-662
-695
-730
-768
-792
-810
-818
-815
-796
-770
-748
-717
-695
-667
-631
-594
-559
-526
-499
-462
-420
-381
-341
-317
-284
-261
-241
-221
-216
-230
-267
-314
-352
-382
-415
-464
-533
-606
-660
-697
-720
-726
-731
-722
-691
-648
-596
-532
-456
-365
-259
-145
-15
123
252
378
502
620
728
828
916
998
1074
1139
1183
1213
1227
1232
1231
1209
1186
1146
1091
1029
970
925
872
820
774
733
699
671
642
608
581
565
548
534
514
496
483
463
439
401
356
299
235
170
95
9
-74
-167
-249
-329
-411
-492
-573
-655
-724
-787
-838
-868
-889
-897
-891
-888
-873
-847
-815
-777
-720
-660
-589
-516
-443
-381
-332
-283
-238
-194
-149
-118
-113
-133
-163
-186
-203
-232
-282
-358
-437
-507
-563
-607
-642
-666
-680
-676
-665
-651
-626
-592
-543
-480
-409
-334
-245
-150
-41
71
189
310
431
546
650
746
822
880
925
953
973
971
952
921
877
820
750
688
635
584
543
500
457
424
392
360
331
301
268
238
196
147
95
31
-40
-121
-218
-325
-433
-541
-644
-760
-887
-1012
-1140
-1265
-1383
-1507
-1632
-1754
-1859
-1939
-1995
-2013
-1982
-1900
-1772
-1601
-1397
-1162
-895
-604
-294
33
371
722
1072
1415
1740
2032
2287
2499
2659
2754
2773
2704
2557
2377
2169
1939
1687
1409
1120
844
611
425
276
164
78
18
-6
4
31
78
139
212
295
374
438
489
527
563
593
602
584
543
482
407
310
172
6
-202
-451
-716
-994
-1292
-1608
-1928
-2229
-2499
-2735
-2962
-3193
-3421
-3634
-3810
-3949
-4054
-4132
-4185
-4202
-4168
-4079
-3955
-3790
-3586
-3349
-3078
-2786
-2488
-2193
-1886
-1575
-1277
-1010
-770
-541
-313
-106
71
239
411
597
805
1012
1216
1435
1657
1883
2117
2340
2555
2760
2945
3108
3237
3330
3389
3404
3386
3334
3234
3100
2945
2766
2578
2375
2151
1913
1675
1468
1277
1097
912
724
539
377
246
138
52
-24
-87
-125
-138
-137
-130
-116
-94
-65
-46
-38
-33
-53
-88
-135
-196
-268
-355
-455
-566
-684
-814
-951
-1088
-1214
-1335
-1448
-1537
-1614
-1667
-1690
-1692
-1654
-1583
-1491
-1372
-1234
-1075
-899
-708
-508
-290
-61
166
397
620
836
1048
1253
1449
1635
1798
1938
2060
2166
2245
2294
2315
2308
2284
2243
2192
2126
2044
1958
1873
1793
1709
1631
1565
1502
1447
1404
1368
1346
1335
1336
1342
1360
1382
1420
1465
1510
1549
1577
1598
1618
1640
1646
1626
1580
1499
1417
1336
1236
1123
981
829
683
549
423
296
165
36
-75
-172
-257
-335
-401
-458
-500
-526
-542
-552
-553
-556
-553
-545
-529
-513
-501
-493
-487
-493
-513
-541
-578
-619
-669
-727
-786
-848
-909
-959
-1001
-1032
-1052
-1058
-1055
-1042
-1019
-990
-954
-910
-849
-794
-729
-663
-606
-546
-488
-430
-378
-339
-310
-284
-263
-256
-270
-304
-352
-411
-473
-548
-624
-703
-783
-842
-889
-926
-948
-942
-923
-878
-822
-761
-688
-596
-497
-386
-275
-161
-37
87
211
329
432
528
618
703
773
815
826
818
803
793
779
750
703
631
565
511
465
430
391
348
317
294
282
279
276
280
296
318
343
365
390
411
428
442
458
471
477
469
452
420
377
322
256
186
102
15
-80
-177
-274
-372
-464
-540
-604
-659
-699
-728
-749
-760
-763
-756
-725
-689
-649
-605
-562
-517
-465
-409
-357
-313
-280
-249
-217
-185
-157
-146
-139
-136
-130
-121
-113
-110
-108
-97
-82
-67
-53
-34
-6
28
66
108
146
196
256
314
375
429
489
549
604
657
690
714
731
749
758
746
713
657
599
555
515
472
415
337
266
208
164
122
80
46
24
21
27
38
46
65
101
145
197
257
314
368
423
476
529
576
615
641
660
663
645
612
566
507
438
353
267
175
73
-24
-122
-204
-276
-334
-387
-425
-439
-451
-449
-433
-403
-364
-317
-265
-216
-167
-118
-65
-12
32
65
93
123
147
159
154
133
106
77
45
8
-39
-94
-153
-203
-247
-289
-321
-342
-353
-354
-344
-323
-287
-242
-187
-121
-57
13
95
170
244
312
372
427
484
536
575
596
585
560
532
508
487
454
401
333
265
212
169
135
102
74
56
45
42
31
29
32
43
66
91
124
154
188
224
262
297
323
344
359
355
342
307
250
185
117
40
-42
-132
-224
-314
-400
-485
-555
-619
-682
-727
-771
-798
-806
-807
-795
-766
-729
-672
-605
-540
-473
-401
-325
-252
-190
-142
-105
-79
-60
-52
-67
-101
-152
-210
-274
-350
-429
-516
-603
-675
-742
-796
-830
-849
-854
-842
-822
-792
-742
-687
-619
-546
-477
-396
-315
-231
-143
-72
-22
25
61
91
101
86
45
-9
-51
-88
-129
-174
-244
-323
-389
-440
-472
-496
-519
-534
-530
-508
-490
-473
-454
-427
-399
-358
-317
-273
-219
-163
-101
-36
39
123
201
273
336
381
411
423
425
417
393
359
321
271
206
142
77
24
-17
-56
-79
-91
-96
-89
-70
-41
-2
40
87
129
163
191
210
222
229
227
207
185
157
125
90
42
-22
-86
-147
-202
-254
-311
-372
-432
-478
-508
-535
-540
-530
-506
-472
-429
-378
-319
-251
-188
-125
-64
-7
54
113
165
205
237
265
292
320
338
335
312
274
247
230
211
186
142
88
45
19
7
7
9
15
42
76
119
162
205
259
321
394
471
541
615
685
753
823
882
932
968
988
1002
993
969
937
888
834
773
701
615
521
415
306
205
110
25
-49
-112
-159
-191
-207
-211
-204
-180
-147
-102
-51
-6
37
79
120
165
199
222
231
232
230
216
184
133
68
-6
-78
-155
-235
-318
-398
-468
-530
-587
-629
-659
-681
-695
-695
-691
-675
-641
-601
-553
-498
-438
-367
-297
-227
-165
-118
-78
-43
-7
14
10
-16
-58
-95
-117
-140
-163
-206
-263
-310
-341
-355
-357
-356
-338
-304
-251
-173
-75
41
175
327
492
673
873
1069
1251
1408
1536
1657
1778
1912
2080
2284
2468
2562
2585
2595
2620
2674
2695
2565
2243
1763
1157
473
-223
-926
-1641
-2346
-3005
-3578
-4046
-4415
-4696
-4891
-5016
-5059
-5026
-4939
-4817
-4672
-4518
-4352
-4170
-3965
-3740
-3485
-3202
-2907
-2595
-2271
-1958
-1637
-1313
-998
-692
-410
-149
102
335
553
754
942
1122
1295
1461
1613
1756
1895
2021
2130
2230
2311
2377
2436
2493
2539
2566
2583
2593
2597
2596
2574
2520
2447
2360
2272
2185
2088
1969
1830
1687
1545
1408
1274
1138
1006
882
781
692
610
535
461
400
346
299
259
225
192
158
123
85
46
2
-43
-92
-137
-184
-227
-267
-301
-325
-353
-380
-397
-411
-417
-420
-416
-399
-375
-347
-309
-277
-252
-233
-218
-204
-191
-183
-179
-180
-188
-191
-186
-179
-170
-166
-167
-169
-178
-184
-196
-225
-264
-316
-370
-426
-487
-561
-639
-712
-780
-830
-879
-912
-927
-931
-917
-891
-847
-783
-707
-619
-526
-427
-334
-236
-135
-39
42
106
162
205
252
285
298
290
260
232
206
177
141
101
41
-14
-54
-84
-107
-127
-139
-135
-114
-86
-47
-4
47
108
180
256
332
410
483
552
619
678
729
772
803
828
839
826
797
753
694
629
551
471
384
291
191
87
-4
-87
-157
-216
-262
-300
-320
-325
-318
-289
-257
-212
-162
-111
-54
0
56
118
171
211
242
265
287
299
301
286
255
220
185
144
99
42
-16
-70
-114
-150
-178
-186
-186
-174
-149
-121
-86
-39
22
88
157
225
295
363
424
478
515
541
551
562
571
557
526
474
409
353
306
254
186
101
11
-64
-124
-169
-206
-239
-255
-254
-239
-215
-185
-144
-94
-36
28
95
162
228
290
347
404
449
478
496
498
486
465
429
378
315
241
161
77
-16
-108
-207
-310
-405
-484
-558
-614
-655
-692
-706
-710
-706
-688
-653
-612
-553
-485
-420
-350
-277
-202
-132
-71
-13
29
63
94
106
101
76
40
-2
-46
-95
-146
-202
-254
-300
-337
-366
-385
-387
-373
-350
-320
-284
-240
-185
-123
-56
19
92
170
250
329
402
466
524
576
625
658
669
650
604
546
495
436
358
264
145
22
-84
-177
-259
-335
-402
-453
-476
-486
-488
-474
-457
-429
-388
-342
-302
-263
-234
-206
-184
-162
-142
-132
-130
-136
-146
-161
-179
-211
-247
-285
-326
-363
-395
-425
-450
-468
-479
-475
-459
-429
-387
-340
-281
-216
-146
-72
16
106
199
284
367
445
516
581
631
661
672
664
644
612
563
497
416
319
226
138
36
-65
-175
-276
-361
-436
-499
-541
-569
-577
-562
-544
-517
-478
-428
-369
-305
-236
-167
-99
-27
36
90
136
180
217
259
287
293
281
246
205
163
122
72
5
-77
-138
-176
-284
-403
-451
-471
-470
-448
-427
-415
-396
-361
-306
-234
-162
-97
-31
33
96
160
217
266
306
339
356
361
343
292
230
164
71
-48
-164
-240
-303
-392
-492
-572
-610
-616
-593
-561
-531
-490
-453
-421
-389
-357
-312
-263
-217
-166
-90
-2
84
161
228
283
338
395
450
486
496
476
435
391
348
306
258
205
158
118
93
77
65
66
66
67
75
92
117
151
193
245
294
345
407
468
528
574
609
647
688
728
761
770
755
725
689
661
628
580
514
426
330
241
159
82
8
-63
-120
-153
-160
-177
-213
-220
-194
-144
-97
-66
-39
-5
33
78
124
167
197
216
224
223
211
179
142
87
24
-38
-95
-147
-213
-293
-364
-433
-483
-527
-564
-588
-610
-616
-611
-597
-566
-523
-473
-406
-337
-280
-217
-163
-115
-69
-41
-29
-32
-38
-59
-93
-132
-185
-242
-299
-346
-398
-445
-494
-540
-578
-607
-629
-641
-639
-630
-608
-578
-540
-493
-430
-357
-284
-202
-117
-29
65
155
233
302
363
424
478
519
535
523
481
434
391
352
309
246
174
97
34
-12
-54
-89
-112
-116
-100
-68
-32
17
74
138
204
274
367
470
563
631
695
759
824
887
937
968
976
960
917
852
782
704
624
538
447
359
264
166
70
-7
-65
-115
-154
-181
-185
-167
-129
-83
-23
47
132
228
320
406
492
569
629
670
691
697
692
682
668
636
595
539
478
417
354
290
219
152
86
30
-12
-43
-49
-36
-6
33
77
127
188
251
316
383
442
503
563
616
657
674
678
676
673
665
638
587
514
435
359
292
223
143
44
-54
-141
-214
-275
-332
-383
-427
-454
-465
-468
-460
-449
-423
-391
-346
-296
-248
-200
-162
-121
-83
-52
-26
-9
-12
-24
-45
-81
-122
-173
-238
-305
-375
-439
-501
-572
-638
-697
-741
-764
-788
-791
-791
-786
-775
-755
-730
-687
-632
-571
-496
-428
-360
-287
-218
-146
-83
-35
3
27
49
65
69
54
21
-19
-56
-96
-139
-188
-243
-293
-337
-364
-385
-397
-390
-381
-359
-324
-283
-228
-160
-92
-21
54
129
213
294
371
433
484
515
543
580
603
586
519
431
351
303
271
220
142
44
-64
-154
-231
-299
-355
-397
-419
-421
-406
-387
-362
-329
-293
-239
-184
-124
-67
-10
40
88
131
171
204
230
251
266
259
239
213
176
142
94
43
-7
-68
-127
-180
-227
-249
-263
-259
-243
-225
-194
-155
-108
-55
6
70
136
201
256
315
375
433
486
525
552
560
556
544
503
442
358
262
170
78
-27
-141
-258
-371
-470
-553
-628
-682
-716
-726
-719
-697
-658
-604
-531
-445
-357
-271
-186
-96
-5
84
158
225
278
327
376
407
414
393
351
301
244
179
104
0
-118
-236
-343
-436
-526
-606
-681
-749
-794
-828
-854
-868
-873
-863
-837
-808
-774
-736
-709
-679
-637
-591
-542
-487
-446
-410
-382
-362
-349
-332
-317
-307
-299
-287
-276
-272
-281
-301
-322
-335
-335
-320
-295
-256
-208
-152
-94
-17
71
163
272
400
483
520
584
691
816
931
1031
1097
1134
1159
1168
1147
1091
1009
911
810
691
577
465
353
256
186
125
80
59
47
49
60
75
104
147
200
264
326
388
454
518
575
625
653
676
691
700
696
668
611
532
447
374
304
221
124
14
-91
-180
-247
-303
-358
-405
-439
-447
-442
-434
-412
-389
-350
-294
-236
-178
-120
-66
-20
31
82
129
168
189
202
206
188
153
110
51
-19
-91
-169
-244
-322
-402
-475
-537
-582
-617
-648
-663
-674
-674
-658
-638
-607
-560
-506
-440
-369
-306
-242
-182
-123
-71
-31
-9
3
4
-1
-20
-53
-97
-155
-214
-269
-323
-377
-433
-482
-522
-550
-571
-579
-573
-559
-538
-517
-493
-460
-416
-364
-314
-270
-232
-194
-158
-125
-105
-106
-112
-124
-140
-162
-205
-271
-343
-402
-445
-472
-501
-539
-579
-612
-626
-626
-620
-606
-585
-559
-513
-456
-402
-341
-276
-207
-125
-48
24
89
141
182
213
237
246
247
230
204
163
116
56
-10
-76
-142
-205
-267
-324
-385
-448
-509
-556
-589
-612
-622
-623
-614
-597
-572
-545
-511
-464
-405
-336
-268
-204
-138
-63
12
83
146
199
247
295
336
364
374
365
342
325
306
276
245
210
180
160
145
141
154
178
213
264
313
368
439
511
580
655
729
799
868
926
975
1002
1018
1026
1022
1018
995
936
851
746
650
561
469
362
230
94
-37
-141
-226
-304
-369
-422
-442
-437
-419
-389
-348
-295
-225
-138
-45
45
133
218
302
385
467
543
606
655
694
715
715
695
659
610
553
487
415
339
257
177
108
55
16
-8
-10
-7
11
47
88
142
209
284
363
444
519
589
654
714
765
799
807
800
777
745
705
645
572
486
396
317
235
148
61
-25
-92
-148
-196
-227
-243
-248
-244
-229
-204
-169
-122
-75
-21
33
86
144
208
266
309
345
367
377
385
374
333
266
182
97
18
-59
-151
-261
-377
-483
-567
-634
-705
-765
-817
-850
-865
-872
-877
-881
-881
-869
-849
-829
-801
-763
-731
-696
-657
-622
-589
-564
-550
-541
-552
-581
-625
-681
-749
-818
-885
-947
-998
-1038
-1071
-1082
-1074
-1053
-1020
-970
-906
-829
-743
-655
-560
-459
-361
-261
-154
-55
41
137
226
313
385
440
488
528
569
601
615
604
589
572
554
529
497
452
408
376
340
307
282
269
268
270
279
296
319
358
404
455
511
562
618
674
719
751
763
769
765
755
721
663
575
477
388
306
229
140
37
-60
-131
-178
-202
-212
-211
-200
-168
-114
-57
-3
59
122
195
267
344
414
471
518
548
569
573
563
544
506
461
401
338
273
207
146
83
20
-37
-95
-149
-201
-240
-262
-276
-274
-272
-262
-233
-199
-161
-111
-61
-11
43
89
128
169
205
234
257
261
264
254
233
215
176
127
69
6
-41
-86
-136
-181
-228
-265
-287
-305
-317
-317
-304
-279
-246
-202
-152
-91
-20
54
127
204
276
343
406
453
483
493
491
492
480
442
378
288
204
127
59
-10
-103
-204
-300
-373
-430
-477
-520
-552
-573
-577
-564
-548
-525
-495
-457
-411
-357
-297
-236
-180
-123
-67
-14
33
66
87
95
81
50
10
-42
-101
-167
-246
-326
-418
-512
-601
-688
-756
-816
-869
-906
-938
-956
-951
-938
-912
-867
-821
-767
-708
-655
-595
-534
-475
-421
-383
-361
-343
-329
-320
-319
-337
-359
-387
-417
-444
-476
-507
-531
-551
-553
-547
-540
-521
-491
-447
-389
-330
-258
-177
-93
-9
75
159
244
328
417
498
567
627
680
724
752
752
727
683
637
593
541
474
385
280
185
111
49
-4
-57
-112
-150
-162
-154
-130
-99
-54
7
84
169
259
355
443
522
591
648
694
723
725
701
647
567
468
351
212
59
-97
-232
-330
-378
-375
-326
-231
-106
53
245
463
709
981
1274
1595
1925
2252
2562
2840
3074
3255
3368
3402
3347
3206
2987
2711
2381
2016
1620
1207
799
417
71
-231
-494
-716
-895
-1039
-1157
-1251
-1316
-1356
-1392
-1404
-1417
-1430
-1435
-1442
-1440
-1418
-1387
-1352
-1325
-1319
-1325
-1347
-1379
-1420
-1471
-1535
-1654
-1819
-2010
-2203
-2379
-2550
-2727
-2905
-3078
-3220
-3314
-3360
-3369
-3335
-3268
-3151
-2996
-2820
-2609
-2359
-2095
-1818
-1515
-1192
-849
-498
-151
192
520
827
1112
1363
1581
1760
1906
2013
2103
2183
2246
2299
2353
2414
2475
2545
2616
2692
2773
2846
2919
2977
3025
3065
3084
3086
3082
3067
3033
2979
2901
2802
2693
2569
2433
2292
2131
1965
1801
1641
1491
1344
1198
1065
947
846
759
676
598
520
458
397
329
264
202
145
87
26
-46
-120
-196
-274
-356
-443
-533
-622
-706
-788
-867
-954
-1033
-1100
-1152
-1203
-1263
-1337
-1408
-1456
-1487
-1505
-1522
-1547
-1561
-1550
-1508
-1442
-1366
-1273
-1161
-1020
-863
-694
-521
-344
-165
22
208
387
557
717
857
985
1098
1188
1256
1294
1306
1282
1224
1136
1030
905
768
619
465
312
164
23
-101
-194
-277
-337
-372
-387
-381
-351
-307
-245
-168
-81
14
115
207
304
396
480
556
615
650
677
696
703
687
639
569
475
371
255
125
-12
-154
-293
-424
-553
-667
-763
-844
-899
-937
-962
-965
-946
-912
-859
-796
-731
-657
-583
-509
-440
-390
-339
-293
-251
-237
-254
-305
-372
-436
-506
-583
-685
-826
-972
-1104
-1222
-1325
-1422
-1510
-1582
-1620
-1637
-1633
-1608
-1570
-1515
-1433
-1337
-1235
-1129
-1023
-920
-809
-704
-603
-502
-421
-354
-310
-287
-276
-277
-282
-299
-321
-344
-380
-410
-439
-451
-438
-413
-370
-313
-250
-162
-32
118
235
258
217
200
268
423
640
869
1085
1263
1381
1455
1494
1512
1517
1496
1436
1350
1240
1113
969
812
662
514
382
271
171
95
42
12
6
10
35
93
168
261
362
471
588
711
830
939
1028
1098
1149
1187
1207
1193
1144
1069
988
909
827
734
620
491
371
276
202
125
51
-11
-49
-61
-52
-41
-17
13
57
116
182
252
318
382
439
487
527
560
581
583
559
514
445
362
279
185
80
-25
-141
-256
-362
-457
-534
-593
-646
-677
-692
-689
-667
-639
-600
-554
-502
-451
-397
-342
-288
-229
-176
-126
-84
-58
-43
-29
-23
-27
-47
-83
-127
-183
-255
-334
-422
-509
-588
-656
-726
-787
-831
-873
-894
-907
-914
-906
-889
-859
-821
-779
-724
-664
-604
-543
-495
-463
-433
-405
-377
-356
-360
-392
-428
-457
-480
-508
-556
-618
-682
-718
-734
-739
-730
-724
-707
-671
-620
-566
-506
-445
-384
-307
-224
-145
-68
-4
49
107
159
204
244
269
267
239
186
119
44
-40
-138
-245
-353
-466
-570
-658
-732
-783
-812
-820
-805
-778
-732
-667
-590
-491
-385
-273
-162
-59
40
139
226
304
360
388
395
393
381
355
321
273
224
176
131
89
55
28
11
7
13
32
70
116
168
232
294
364
446
531
621
706
788
871
950
1032
1102
1147
1187
1222
1250
1251
1225
1170
1129
1057
905
803
740
662
594
528
458
400
351
312
296
298
311
331
356
386
424
468
515
556
592
615
632
652
672
703
734
774
806
819
824
819
796
764
717
655
581
495
395
298
201
106
16
-58
-105
-134
-141
-139
-127
-94
-47
12
70
132
192
258
320
371
411
424
423
411
378
322
244
152
52
-60
-182
-303
-429
-553
-668
-778
-885
-990
-1086
-1165
-1233
-1286
-1328
-1356
-1361
-1359
-1346
-1323
-1292
-1244
-1189
-1124
-1065
-1018
-967
-923
-880
-847
-837
-836
-832
-810
-786
-774
-780
-817
-861
-890
-908
-922
-949
-983
-1011
-1018
-1015
-1006
-993
-977
-951
-917
-875
-834
-797
-766
-741
-723
-709
-695
-681
-679
-690
-716
-750
-776
-800
-826
-847
-877
-905
-925
-939
-942
-922
-888
-847
-791
-720
-639
-553
-459
-358
-247
-126
-5
116
235
351
468
579
673
746
793
822
837
839
825
789
735
673
599
503
386
262
147
46
-47
-138
-214
-282
-350
-412
-480
-529
-533
-494
-435
-376
-320
-252
-176
-86
3
68
113
138
153
153
122
68
-21
-137
-250
-322
-369
-399
-412
-435
-453
-430
-381
-348
-302
-234
-167
-101
-31
47
131
224
330
433
537
646
748
853
950
1030
1105
1184
1278
1355
1370
1323
1255
1189
1114
1038
955
852
751
678
623
560
488
435
403
376
329
255
181
145
138
164
208
274
366
478
590
686
755
799
817
816
797
719
640
683
770
740
607
479
413
395
369
293
169
48
-43
-99
-134
-189
-266
-332
-372
-383
-380
-395
-438
-494
-529
-523
-469
-376
-332
-363
-416
-490
-575
-615
-583
-491
-382
-319
-316
-325
-307
-214
-39
160
272
237
99
-85
-305
-588
-945
-1346
-1771
-2177
-2524
-2798
-3061
-3278
-3369
-3363
-3297
-3204
-3111
-3025
-2954
-2876
-2775
-2645
-2476
-2294
-2118
-1900
-1658
-1402
-1128
-843
-537
-219
112
429
715
991
1257
1515
1772
2002
2216
2411
2581
2744
2885
2983
3048
3077
3075
3067
3051
2998
2920
2828
2730
2614
2479
2314
2131
1969
1848
1745
1644
1543
1481
1468
1476
1501
1516
1525
1558
1619
1706
1758
1736
1693
1641
1591
1561
1534
1475
1391
1308
1220
1106
962
788
652
508
268
12
-190
-309
-374
-405
-433
-470
-460
-399
-321
-258
-228
-218
-214
-200
-170
-135
-90
-38
17
74
129
184
234
277
318
338
334
320
294
258
209
147
84
9
-69
-141
-204
-248
-285
-308
-315
-317
-298
-265
-237
-198
-134
-64
-21
4
29
91
204
317
392
433
444
442
439
412
365
307
238
159
80
-8
-105
-198
-284
-342
-396
-454
-488
-510
-519
-507
-486
-472
-455
-445
-451
-468
-485
-488
-487
-472
-382
-175
96
305
409
412
391
437
540
661
750
774
733
668
603
551
505
457
390
316
238
154
72
-2
-82
-158
-219
-278
-325
-366
-412
-456
-501
-546
-586
-621
-660
-705
-768
-834
-894
-959
-1019
-1080
-1145
-1209
-1275
-1330
-1363
-1378
-1386
-1387
-1374
-1359
-1329
-1284
-1237
-1186
-1121
-1036
-925
-806
-686
-566
-439
-314
-194
-89
1
81
147
191
217
230
240
241
228
212
192
168
156
152
151
158
170
190
215
241
261
278
295
316
344
373
409
418
333
178
108
188
305
406
474
504
520
545
571
585
586
570
527
479
432
393
362
334
306
289
294
314
341
375
412
457
520
576
640
704
753
798
830
849
862
869
866
846
801
740
679
614
549
493
436
375
320
275
255
247
250
268
296
344
395
456
522
594
669
747
832
903
969
1036
1092
1135
1167
1181
1180
1161
1126
1069
995
905
802
694
567
426
278
137
3
-123
-242
-349
-441
-507
-553
-586
-598
-586
-558
-519
-473
-420
-356
-284
-218
-169
-133
-105
-81
-68
-77
-117
-179
-247
-308
-369
-445
-544
-649
-743
-810
-859
-896
-928
-952
-953
-932
-898
-851
-802
-752
-683
-605
-524
-435
-350
-267
-187
-114
-43
22
72
98
94
62
8
-58
-136
-224
-320
-425
-538
-649
-749
-838
-929
-1013
-1077
-1128
-1166
-1188
-1203
-1205
-1190
-1164
-1124
-1077
-1032
-979
-923
-874
-833
-807
-791
-777
-771
-778
-796
-828
-856
-878
-898
-910
-909
-895
-874
-837
-790
-739
-694
-653
-600
-539
-471
-394
-321
-256
-186
-113
-23
69
159
245
322
390
447
493
522
520
493
459
424
395
355
285
192
117
64
-14
-149
-391
-647
-745
-650
-495
-337
-167
19
215
424
614
757
864
960
1043
1119
1177
1210
1230
1230
1195
1147
1086
1019
957
889
810
720
618
516
444
388
337
292
247
226
230
249
288
339
402
467
533
605
676
737
793
852
897
924
947
958
960
952
929
899
861
825
785
736
618
321
-60
-206
-79
107
263
369
450
535
632
708
761
812
868
949
1033
1104
1160
1194
1206
1212
1219
1219
1208
1173
1102
1010
909
807
706
588
451
313
195
94
2
-94
-194
-288
-361
-419
-461
-491
-516
-534
-541
-537
-521
-493
-458
-424
-392
-363
-329
-299
-282
-291
-321
-365
-413
-466
-523
-585
-653
-730
-804
-864
-906
-927
-938
-937
-918
-893
-848
-794
-733
-666
-589
-504
-416
-328
-249
-171
-107
-60
-24
-7
-8
-19
-47
-95
-155
-222
-297
-384
-476
-572
-664
-746
-822
-893
-956
-1011
-1046
-1069
-1078
-1067
-1039
-987
-926
-856
-771
-682
-584
-476
-366
-267
-170
-76
11
86
131
147
151
150
152
148
110
46
-26
-79
-114
-138
-153
-167
-163
-137
-89
-27
45
116
198
296
401
513
620
717
799
870
927
979
1017
1036
1029
1001
952
897
839
766
689
603
505
413
329
259
198
141
108
84
75
83
101
124
156
202
253
317
381
445
514
567
608
640
656
666
659
632
587
527
465
401
327
243
151
61
-19
-93
-165
-233
-290
-338
-369
-396
-414
-419
-417
-418
-416
-410
-400
-382
-369
-371
-387
-405
-423
-441
-470
-521
-583
-640
-682
-709
-731
-768
-810
-832
-824
-790
-748
-705
-657
-595
-509
-417
-312
-205
-104
10
122
232
337
431
509
579
630
677
720
746
751
738
702
653
603
544
480
412
326
240
156
87
29
-24
-65
-96
-102
-102
-81
-53
-20
27
72
125
185
240
299
346
380
396
394
376
342
289
222
141
52
-43
-153
-270
-386
-495
-589
-663
-729
-777
-804
-811
-794
-761
-714
-648
-567
-482
-391
-303
-208
-112
-23
54
110
146
178
187
172
120
40
-43
-121
-203
-300
-421
-556
-683
-793
-880
-957
-1028
-1092
-1141
-1170
-1187
-1192
-1188
-1179
-1156
-1129
-1095
-1057
-1027
-1006
-995
-990
-993
-995
-1009
-1042
-1088
-1142
-1195
-1236
-1272
-1298
-1325
-1355
-1375
-1384
-1371
-1337
-1294
-1238
-1167
-1075
-972
-860
-733
-604
-470
-331
-188
-45
89
218
336
444
533
608
662
705
727
740
737
729
717
687
651
607
566
542
515
486
464
445
429
429
433
446
466
492
517
548
582
621
666
707
739
759
777
786
786
763
710
632
556
488
413
322
202
70
-50
-148
-218
-276
-325
-363
-379
-373
-350
-309
-257
-201
-123
-43
43
140
232
316
390
457
509
548
573
559
518
460
386
302
216
118
9
-102
-207
-297
-368
-426
-474
-502
-513
-503
-469
-416
-351
-272
-175
-66
53
173
289
409
520
618
707
780
839
888
914
923
915
898
869
818
757
689
627
571
516
467
428
399
387
389
403
433
477
527
577
624
672
724
769
810
838
849
856
853
836
797
728
644
553
463
372
264
131
-9
-132
-230
-298
-361
-416
-454
-472
-463
-442
-403
-355
-300
-224
-138
-46
50
139
220
294
354
401
435
442
412
355
275
183
86
-23
-139
-269
-409
-543
-670
-772
-858
-928
-983
-1014
-1027
-1020
-995
-956
-897
-822
-735
-635
-539
-449
-353
-262
-184
-117
-65
-23
6
16
11
-7
-33
-67
-114
-167
-221
-269
-305
-330
-357
-371
-379
-380
-373
-358
-330
-297
-254
-208
-155
-97
-34
27
91
135
170
205
227
242
236
198
143
88
35
-10
-74
-161
-252
-333
-394
-441
-476
-512
-532
-527
-500
-454
-398
-333
-255
-170
-72
33
144
249
337
414
486
548
587
606
584
535
459
368
270
162
36
-100
-242
-383
-511
-618
-710
-791
-845
-869
-873
-853
-821
-772
-708
-635
-552
-463
-380
-293
-213
-152
-102
-64
-36
-8
2
2
-7
-27
-52
-86
-135
-188
-236
-280
-321
-362
-392
-415
-428
-426
-413
-386
-345
-302
-254
-192
-126
-51
29
104
175
238
295
348
388
411
407
388
370
359
346
310
245
167
93
36
-12
-59
-105
-142
-160
-162
-145
-117
-84
-41
5
63
126
190
251
301
338
366
384
387
374
337
290
237
179
125
74
16
-50
-114
-172
-215
-247
-276
-301
-320
-318
-303
-275
-237
-189
-127
-62
11
81
151
222
289
338
375
400
410
419
404
377
344
301
248
184
119
49
-17
-74
-128
-174
-211
-240
-262
-273
-271
-253
-225
-191
-152
-111
-61
5
73
146
210
263
326
376
422
447
447
447
449
452
444
406
338
264
200
149
109
62
8
-30
-55
-63
-49
-28
5
53
105
164
231
290
340
381
413
443
464
472
457
422
373
315
250
183
99
6
-100
-208
-305
-397
-486
-558
-617
-655
-672
-670
-648
-610
-548
-472
-380
-278
-183
-79
16
104
182
243
294
336
360
366
357
338
314
274
215
157
95
38
-13
-68
-109
-144
-176
-198
-209
-206
-186
-161
-125
-82
-29
36
110
189
259
322
378
419
436
423
378
312
238
165
82
-20
-140
-264
-373
-459
-528
-589
-643
-677
-683
-662
-625
-573
-510
-435
-350
-255
-154
-54
38
119
191
250
299
329
336
311
264
199
133
65
-5
-83
-173
-268
-357
-435
-508
-580
-647
-703
-741
-758
-757
-733
-688
-622
-536
-428
-311
-190
-64
50
149
236
306
361
392
400
386
360
323
273
212
144
79
24
-20
-59
-81
-93
-93
-77
-52
-12
42
114
188
269
355
445
541
629
703
768
823
867
895
899
876
844
809
775
736
676
594
503
425
373
331
291
253
216
187
178
174
178
183
204
232
275
325
376
429
475
513
560
598
622
631
609
565
510
446
375
294
200
89
-24
-135
-228
-312
-385
-440
-481
-493
-484
-456
-407
-350
-287
-223
-162
-103
-46
10
51
76
82
76
60
29
-26
-98
-182
-266
-366
-478
-597
-719
-828
-918
-1004
-1072
-1122
-1161
-1179
-1177
-1153
-1111
-1051
-987
-901
-807
-698
-575
-457
-347
-250
-160
-75
-11
30
40
34
25
13
-7
-52
-122
-203
-282
-335
-380
-428
-472
-511
-527
-523
-501
-471
-436
-384
-317
-242
-160
-80
-8
54
107
155
190
196
180
143
87
27
-34
-101
-175
-257
-342
-422
-494
-542
-578
-599
-603
-597
-569
-535
-487
-421
-345
-262
-163
-72
11
96
171
235
289
332
364
378
369
339
287
229
157
70
-26
-130
-234
-324
-404
-470
-515
-545
-548
-530
-488
-418
-329
-223
-108
19
157
302
453
599
733
861
976
1078
1154
1197
1214
1214
1205
1189
1161
1098
1009
919
840
779
722
665
619
584
568
573
591
622
665
720
787
863
949
1035
1111
1177
1236
1291
1335
1351
1341
1310
1257
1191
1119
1032
931
815
687
559
437
322
217
120
37
-27
-70
-96
-106
-100
-87
-63
-35
-1
34
69
96
112
119
121
113
93
57
6
-55
-115
-183
-265
-345
-422
-489
-542
-587
-621
-636
-640
-625
-601
-565
-515
-452
-392
-327
-262
-197
-121
-51
15
74
125
177
224
248
252
238
219
194
162
104
17
-89
-195
-286
-361
-439
-517
-587
-636
-669
-686
-688
-684
-666
-637
-592
-544
-492
-446
-407
-370
-337
-307
-285
-281
-298
-322
-356
-400
-443
-492
-554
-623
-690
-746
-792
-828
-848
-853
-852
-829
-788
-732
-657
-574
-477
-363
-241
-125
-5
107
208
293
361
410
438
440
421
378
318
240
140
29
-90
-211
-315
-417
-513
-590
-660
-715
-752
-771
-768
-742
-709
-665
-608
-543
-465
-376
-293
-217
-146
-80
-28
7
20
10
-9
-28
-49
-91
-147
-219
-294
-353
-400
-442
-479
-512
-531
-530
-516
-488
-451
-411
-362
-309
-251
-187
-135
-98
-64
-39
-20
-11
-23
-56
-108
-170
-235
-303
-380
-468
-567
-674
-765
-840
-904
-949
-973
-976
-953
-905
-832
-735
-624
-494
-348
-187
-18
159
339
512
670
809
935
1042
1120
1175
1207
1228
1227
1209
1176
1128
1057
985
913
838
771
700
639
591
554
533
529
532
540
562
589
622
659
692
714
726
736
737
702
634
547
452
359
264
152
14
-146
-298
-432
-544
-644
-743
-831
-878
-866
-780
-628
-418
-162
131
450
788
1145
1503
1862
2219
2557
2874
3148
3357
3491
3553
3536
3435
3249
2976
2626
2216
1759
1291
832
395
2
-344
-641
-876
-1055
-1177
-1248
-1267
-1243
-1183
-1107
-1017
-921
-831
-748
-676
-611
-553
-496
-455
-425
-395
-366
-348
-355
-410
-499
-606
-725
-850
-984
-1139
-1293
-1431
-1576
-1721
-1854
-1964
-2052
-2107
-2134
-2132
-2091
-2022
-1913
-1783
-1652
-1512
-1351
-1178
-1019
-883
-767
-651
-528
-394
-256
-126
-26
63
153
241
325
405
489
578
679
794
928
1090
1269
1471
1699
1934
2172
2397
2601
2783
2931
3029
3061
3023
2915
2738
2510
2232
1914
1564
1196
826
471
132
-184
-463
-705
-903
-1056
-1163
-1224
-1240
-1214
-1158
-1067
-963
-844
-709
-577
-450
-334
-238
-165
-122
-110
-129
-172
-247
-351
-478
-626
-783
-937
-1089
-1235
-1363
-1478
-1567
-1632
-1682
-1702
-1694
-1669
-1630
-1573
-1501
-1409
-1304
-1199
-1095
-993
-884
-770
-669
-574
-483
-392
-293
-182
-92
-16
41
99
166
240
308
364
412
457
501
545
586
620
653
693
736
784
834
871
905
929
953
966
964
944
908
865
811
755
697
638
569
504
441
391
349
316
297
295
308
334
366
403
452
507
565
629
692
748
801
831
845
843
823
792
738
669
579
481
376
266
150
36
-62
-149
-223
-284
-336
-372
-393
-401
-394
-364
-315
-256
-192
-116
-36
53
139
213
270
318
356
376
370
337
294
245
191
125
33
-75
-186
-290
-375
-454
-533
-604
-663
-712
-740
-752
-749
-731
-699
-652
-592
-520
-440
-364
-290
-212
-145
-91
-54
-33
-22
-16
-15
-15
-17
-25
-37
-48
-47
-45
-39
-24
-5
31
80
132
185
246
312
382
459
538
607
676
731
776
816
843
856
848
828
795
763
728
678
622
568
512
463
411
374
347
330
327
331
342
361
392
431
470
516
563
614
667
707
737
754
768
758
732
688
630
572
516
446
358
255
152
64
-6
-66
-121
-170
-208
-228
-230
-217
-188
-140
-81
-8
72
154
235
297
347
389
417
425
411
374
321
249
152
43
-86
-230
-380
-536
-684
-826
-957
-1070
-1170
-1246
-1297
-1329
-1334
-1312
-1268
-1199
-1109
-1002
-890
-776
-670
-569
-481
-401
-327
-275
-241
-227
-229
-244
-279
-331
-387
-444
-493
-538
-576
-601
-616
-619
-610
-591
-561
-518
-465
-408
-341
-275
-202
-124
-51
19
82
141
195
225
236
230
216
196
155
91
8
-67
-129
-185
-229
-274
-322
-350
-361
-363
-349
-330
-299
-262
-219
-164
-110
-64
-22
12
47
76
83
71
42
-4
-56
-118
-193
-273
-359
-439
-511
-576
-635
-680
-709
-715
-697
-669
-629
-578
-522
-459
-380
-304
-231
-155
-87
-26
33
78
118
142
155
157
148
131
102
57
2
-51
-106
-160
-216
-263
-299
-327
-343
-349
-349
-326
-288
-244
-188
-124
-55
25
104
171
235
295
342
373
379
368
354
337
312
276
213
144
84
45
14
-8
-31
-51
-59
-54
-29
2
41
92
146
206
270
339
396
455
516
571
618
637
640
634
606
568
524
466
400
331
260
191
135
81
41
16
3
11
27
53
90
137
197
258
325
392
454
512
559
593
620
635
636
631
608
574
539
494
431
367
306
253
200
150
110
82
58
46
43
59
90
133
181
227
277
345
409
464
494
508
515
501
458
391
307
228
147
58
-48
-167
-283
-399
-508
-609
-716
-851
-974
-1041
-1068
-1100
-1148
-1213
-1281
-1282
-1217
-1153
-1080
-973
-844
-705
-583
-487
-408
-334
-250
-177
-136
-117
-122
-140
-155
-174
-187
-197
-200
-192
-167
-133
-85
-29
25
91
165
239
324
409
485
550
599
638
669
690
696
678
649
608
560
508
441
361
289
224
164
106
56
14
-18
-40
-50
-58
-58
-47
-33
-15
9
42
80
117
146
172
194
211
208
182
151
114
82
44
-9
-84
-167
-247
-311
-367
-423
-475
-515
-541
-549
-545
-525
-494
-445
-381
-312
-223
-124
-24
74
166
252
320
366
398
415
415
408
395
372
342
298
247
200
158
116
88
66
58
66
77
99
129
165
214
268
329
400
471
535
592
638
674
703
712
705
681
642
599
538
459
374
285
200
119
39
-24
-78
-122
-147
-158
-160
-148
-129
-101
-64
-13
42
102
152
190
227
249
255
241
201
156
108
57
-1
-78
-173
-266
-344
-404
-448
-490
-532
-563
-580
-582
-573
-558
-532
-494
-446
-388
-320
-256
-192
-131
-75
-20
15
32
38
29
10
-18
-53
-93
-147
-208
-269
-324
-377
-424
-461
-492
-503
-505
-488
-464
-430
-383
-325
-246
-153
-48
58
162
260
354
462
573
672
746
789
798
803
801
810
859
945
1016
1008
952
892
878
958
1101
1186
1132
943
661
325
-68
-524
-1029
-1564
-2078
-2534
-2906
-3182
-3381
-3511
-3561
-3540
-3459
-3333
-3198
-3073
-2953
-2825
-2667
-2479
-2272
-2057
-1834
-1601
-1340
-1049
-738
-409
-65
303
702
1104
1457
1756
2030
2295
2551
2764
2912
2994
3038
3047
3032
2992
2928
2855
2772
2673
2548
2403
2257
2131
2034
1956
1888
1829
1768
1706
1652
1610
1578
1547
1516
1470
1416
1349
1270
1176
1061
922
760
571
359
133
-109
-367
-632
-889
-1136
-1359
-1550
-1724
-1870
-1974
-2041
-2092
-2106
-2082
-2035
-1964
-1870
-1766
-1652
-1529
-1399
-1272
-1143
-1021
-915
-816
-733
-643
-550
-460
-378
-320
-282
-255
-219
-171
-124
-86
-67
-44
-14
23
71
122
171
221
272
330
386
434
471
500
528
543
544
519
475
422
354
274
185
79
-34
-153
-264
-367
-460
-537
-596
-641
-661
-662
-644
-602
-547
-478
-394
-296
-197
-99
-6
76
153
222
288
337
369
392
397
393
378
346
306
261
221
184
142
107
78
51
34
23
22
29
45
62
91
124
159
203
245
283
317
342
362
356
330
292
242
195
144
80
-11
-111
-206
-286
-349
-408
-463
-509
-543
-560
-558
-542
-515
-472
-419
-357
-284
-210
-144
-82
-32
8
46
61
55
34
1
-42
-88
-133
-185
-243
-304
-358
-401
-442
-474
-487
-490
-476
-445
-410
-369
-319
-268
-211
-144
-85
-32
18
51
79
92
94
87
58
19
-25
-74
-132
-200
-269
-334
-386
-426
-461
-486
-501
-505
-491
-468
-441
-401
-359
-315
-267
-221
-168
-114
-60
-18
20
49
68
68
42
8
-31
-69
-103
-149
-211
-280
-343
-386
-408
-420
-432
-436
-423
-396
-350
-295
-232
-158
-80
-2
79
160
226
279
324
361
390
395
381
351
311
265
209
146
76
1
-69
-131
-181
-227
-257
-272
-265
-234
-194
-139
-81
-17
54
125
199
268
327
371
399
414
415
408
387
346
298
244
188
125
56
-14
-83
-140
-191
-238
-269
-294
-306
-304
-294
-272
-241
-200
-156
-101
-44
19
89
154
207
252
292
316
321
311
292
277
269
254
225
178
121
73
39
15
-3
-27
-40
-47
-48
-38
-23
-2
31
67
110
160
206
247
285
325
360
383
387
367
328
276
214
141
65
-30
-128
-224
-312
-388
-453
-503
-539
-557
-554
-541
-510
-471
-422
-366
-304
-242
-179
-108
-44
12
65
114
160
191
204
214
212
203
188
154
119
83
50
20
-9
-34
-60
-81
-96
-107
-107
-104
-93
-75
-58
-28
16
60
103
141
171
194
212
209
183
150
113
81
38
-20
-98
-183
-252
-311
-370
-421
-479
-522
-546
-555
-547
-521
-475
-411
-334
-241
-137
-34
70
168
255
334
393
421
431
421
396
365
322
274
222
165
114
60
13
-30
-62
-85
-95
-94
-82
-62
-34
3
53
110
172
235
298
356
406
448
477
498
500
480
450
409
358
288
204
120
33
-49
-128
-209
-274
-339
-387
-427
-460
-476
-470
-456
-434
-400
-353
-297
-234
-170
-116
-64
-19
10
25
19
13
4
-6
-28
-79
-147
-220
-279
-325
-354
-378
-399
-409
-407
-389
-363
-326
-280
-230
-172
-105
-32
47
124
195
264
329
378
404
415
413
393
369
336
286
230
169
108
58
12
-23
-42
-45
-30
-1
42
89
144
206
273
343
418
485
544
588
611
615
609
590
557
510
448
388
328
260
186
111
37
-28
-82
-133
-171
-205
-224
-237
-236
-218
-186
-137
-78
-13
66
159
257
350
435
518
597
662
706
731
736
743
748
741
716
672
619
572
540
515
498
479
469
470
483
511
548
593
641
697
756
815
870
913
952
990
1028
1047
1043
1024
987
940
885
820
745
654
551
449
349
253
161
81
14
-35
-60
-70
-64
-38
-1
53
117
189
265
345
419
476
519
544
552
543
514
470
425
377
308
225
134
30
-76
-173
-262
-327
-386
-441
-479
-515
-521
-495
-460
-409
-352
-292
-227
-154
-60
62
182
257
289
287
259
250
274
338
432
501
496
402
245
56
-147
-351
-546
-711
-839
-936
-998
-1025
-1019
-983
-912
-794
-624
-455
-371
-374
-397
-395
-336
-249
-180
-146
-172
-246
-351
-487
-631
-718
-734
-758
-844
-979
-1141
-1284
-1392
-1475
-1529
-1526
-1445
-1313
-1194
-1102
-1044
-996
-951
-924
-907
-895
-877
-860
-855
-872
-914
-971
-1033
-1102
-1170
-1235
-1299
-1361
-1419
-1476
-1520
-1556
-1579
-1583
-1586
-1568
-1521
-1461
-1389
-1305
-1225
-1131
-1019
-907
-786
-692
-706
-773
-808
-768
-665
-542
-419
-293
-162
-33
77
152
196
216
225
230
241
272
318
379
457
543
633
729
818
905
981
1036
1080
1109
1134
1147
1138
1115
1075
1021
953
871
783
688
595
506
424
358
306
271
258
265
292
339
397
474
560
647
738
832
913
991
1060
1108
1141
1159
1164
1159
1133
1085
1029
963
885
801
707
617
525
436
348
266
197
136
93
56
30
15
12
12
21
35
61
94
134
178
225
272
313
336
329
306
278
246
216
170
102
23
-63
-133
-182
-224
-258
-287
-300
-299
-286
-259
-225
-186
-136
-81
-20
43
94
136
176
210
233
239
226
196
157
113
65
18
-29
-80
-133
-177
-213
-242
-258
-262
-254
-232
-198
-153
-106
-49
8
68
131
194
256
313
356
385
407
416
417
401
370
327
280
220
156
86
12
-58
-120
-183
-245
-300
-356
-400
-432
-462
-476
-480
-477
-473
-464
-451
-431
-406
-382
-365
-349
-340
-341
-363
-397
-440
-473
-503
-537
-584
-642
-704
-751
-778
-797
-813
-834
-850
-851
-843
-823
-800
-773
-741
-701
-658
-610
-559
-517
-473
-433
-393
-359
-341
-336
-338
-346
-355
-367
-384
-412
-444
-473
-494
-510
-524
-532
-537
-530
-518
-505
-484
-462
-427
-391
-343
-281
-212
-142
-68
-2
59
117
174
218
250
270
280
281
269
245
207
164
122
78
27
-15
-51
-80
-93
-106
-103
-81
-46
-5
46
103
167
242
320
386
452
510
560
599
607
605
587
568
542
497
429
350
278
221
178
143
111
84
68
70
81
107
144
193
249
314
384
455
520
576
625
669
703
721
725
721
698
650
591
530
473
417
362
303
259
211
171
135
102
67
54
61
48
38
35
32
42
61
62
59
43
18
5
2
7
2
-20
-55
-95
-131
-185
-234
-278
-332
-368
-417
-453
-466
-462
-432
-401
-357
-286
-205
-96
15
142
266
389
500
609
724
802
876
943
962
970
959
934
904
859
782
717
661
573
533
503
460
428
400
356
323
307
290
252
222
188
165
172
188
196
197
176
160
153
135
123
97
57
3
-57
-121
-185
-252
-323
-393
-460
-531
-586
-631
-656
-667
-664
-648
-617
-578
-538
-487
-438
-387
-336
-289
-251
-222
-199
-176
-166
-163
-163
-170
-167
-174
-193
-211
-237
-269
-293
-329
-357
-378
-386
-370
-346
-300
-235
-163
-82
4
85
171
256
334
406
469
518
564
599
611
616
611
611
605
587
543
478
407
349
305
267
225
188
162
151
154
166
189
217
254
303
361
434
498
551
595
632
658
670
662
642
613
580
543
503
448
393
325
257
198
144
90
41
-3
-33
-47
-53
-53
-46
-25
1
43
92
140
193
236
266
279
283
280
253
211
151
83
16
-62
-140
-222
-305
-369
-428
-472
-499
-518
-516
-506
-483
-451
-404
-351
-297
-241
-190
-132
-72
-20
20
59
94
122
132
121
103
90
75
58
26
-32
-103
-165
-222
-268
-303
-342
-371
-387
-391
-376
-346
-302
-246
-181
-103
-16
68
146
216
282
342
393
423
432
423
398
363
318
272
215
145
75
8
-41
-88
-131
-156
-177
-177
-165
-150
-125
-91
-54
-13
26
65
102
136
160
176
186
185
176
152
123
73
18
-45
-128
-217
-314
-409
-491
-572
-641
-692
-733
-752
-755
-745
-714
-664
-605
-543
-471
-395
-310
-219
-137
-65
9
77
134
172
190
202
217
225
226
212
182
137
96
81
70
59
51
41
43
51
60
73
87
106
120
133
146
158
180
213
219
239
218
165
119
87
29
-19
-77
-141
-216
-251
-290
-343
-371
-420
-479
-528
-575
-612
-616
-589
-558
-510
-463
-412
-338
-264
-181
-102
-27
50
111
165
200
216
218
210
192
146
114
59
-16
-39
-86
-137
-157
-184
-205
-208
-213
-210
-191
-169
-143
-120
-98
-68
-31
-9
19
40
51
70
71
49
18
-11
-31
-40
-59
-95
-137
-171
-191
-188
-172
-162
-147
-124
-96
-58
-8
37
91
157
223
301
378
447
505
570
630
685
720
731
721
694
651
601
546
479
398
311
223
140
63
-10
-73
-132
-181
-222
-266
-293
-292
-278
-244
-187
-123
-52
18
80
123
157
176
184
182
153
114
60
6
-81
-182
-281
-397
-503
-623
-743
-850
-960
-1058
-1150
-1231
-1292
-1339
-1372
-1396
-1414
-1411
-1396
-1369
-1338
-1312
-1289
-1266
-1247
-1241
-1244
-1252
-1251
-1234
-1215
-1202
-1194
-1190
-1170
-1129
-1084
-1043
-1008
-975
-930
-878
-813
-746
-683
-623
-560
-490
-417
-349
-290
-235
-184
-131
-91
-76
-69
-84
-102
-130
-165
-206
-256
-308
-355
-401
-428
-454
-473
-480
-477
-461
-428
-389
-336
-271
-205
-132
-55
22
110
191
268
345
414
477
527
562
596
625
649
667
669
664
643
619
598
562
529
490
451
423
390
363
351
350
356
374
408
452
507
571
630
685
746
806
856
890
912
929
951
967
963
940
904
871
853
847
834
814
798
793
794
796
803
807
818
841
864
898
927
948
964
976
980
980
959
924
874
813
736
638
526
419
341
293
250
209
163
121
93
76
74
86
102
129
169
217
272
337
404
467
529
580
626
661
684
699
690
670
641
603
552
486
403
314
221
135
50
-26
-102
-176
-234
-283
-322
-345
-352
-350
-341
-320
-291
-257
-219
-196
-187
-181
-189
-217
-264
-322
-379
-431
-486
-553
-640
-734
-820
-882
-930
-972
-1009
-1047
-1069
-1082
-1085
-1071
-1052
-1027
-987
-939
-879
-811
-755
-710
-669
-638
-614
-606
-616
-633
-659
-685
-711
-741
-778
-817
-855
-883
-908
-931
-940
-940
-924
-891
-854
-809
-754
-696
-631
-562
-495
-428
-369
-319
-283
-255
-239
-234
-244
-265
-292
-324
-359
-402
-450
-492
-527
-554
-573
-583
-582
-571
-547
-512
-468
-405
-333
-256
-167
-80
14
123
223
318
405
482
559
619
655
678
705
731
751
749
719
680
642
616
602
588
570
556
547
543
549
567
583
605
636
675
724
773
811
846
880
918
947
950
939
917
885
851
804
750
687
622
564
512
438
357
286
223
187
166
161
166
179
198
227
257
291
325
349
368
383
392
396
391
374
351
324
293
270
239
208
183
165
158
149
148
145
148
160
182
213
259
309
358
408
466
529
593
647
692
728
759
775
767
737
690
645
601
547
474
375
263
166
77
-5
-80
-162
-236
-291
-338
-379
-404
-420
-418
-419
-422
-423
-437
-454
-468
-471
-468
-481
-514
-563
-615
-671
-727
-792
-878
-992
-1088
-1135
-1159
-1208
-1266
-1300
-1302
-1271
-1215
-1137
-1023
-857
-638
-364
-39
322
694
1058
1418
1770
2094
2399
2662
2878
3049
3166
3229
3224
3141
2978
2749
2483
2182
1851
1499
1135
781
448
132
-149
-379
-554
-690
-785
-844
-859
-826
-741
-612
-473
-338
-214
-101
-3
87
163
220
228
147
-18
-251
-507
-759
-1016
-1276
-1521
-1724
-1870
-1979
-2078
-2172
-2238
-2281
-2326
-2366
-2389
-2413
-2450
-2486
-2508
-2518
-2528
-2532
-2535
-2523
-2496
-2460
-2417
-2378
-2334
-2274
-2202
-2099
-1983
-1849
-1687
-1504
-1287
-1045
-773
-479
-167
174
539
911
1289
1665
2030
2377
2703
2993
3244
3448
3603
3719
3798
3838
3825
3769
3680
3572
3458
3315
3160
3007
2850
2698
2557
2415
2274
2142
2017
1904
1806
1729
1668
1601
1538
1469
1412
1370
1330
1278
1221
1163
1102
1043
954
843
710
558
412
270
114
-58
-243
-434
-631
-856
-1106
-1353
-1568
-1723
-1834
-1918
-1972
-2005
-2030
-2051
-2034
-1969
-1893
-1815
-1718
-1606
-1486
-1353
-1219
-1103
-992
-876
-737
-592
-485
-388
-287
-149
17
176
327
463
592
722
857
989
1101
1193
1262
1302
1310
1294
1250
1175
1077
962
840
715
576
427
274
122
-21
-153
-281
-400
-509
-596
-663
-717
-749
-758
-753
-734
-703
-664
-610
-552
-495
-436
-384
-332
-289
-264
-257
-260
-269
-273
-282
-309
-340
-368
-383
-383
-370
-344
-308
-260
-200
-127
-48
33
111
201
284
368
449
509
560
598
632
650
639
616
568
504
417
314
205
95
-16
-129
-241
-338
-433
-525
-605
-672
-721
-752
-779
-800
-814
-819
-806
-776
-745
-714
-695
-687
-679
-681
-689
-709
-745
-780
-821
-863
-904
-952
-998
-1037
-1060
-1071
-1079
-1067
-1046
-1010
-947
-874
-787
-685
-577
-470
-354
-236
-116
1
109
202
290
372
436
478
491
495
504
516
514
493
457
414
384
372
375
382
389
405
424
455
497
552
619
702
810
894
935
982
1055
1147
1227
1285
1316
1322
1335
1355
1370
1380
1380
1365
1335
1284
1217
1147
1092
1026
939
835
747
686
634
577
507
438
382
346
322
294
267
235
202
159
120
79
22
-46
-117
-183
-252
-321
-393
-455
-515
-558
-603
-652
-690
-725
-749
-761
-767
-755
-734
-706
-676
-630
-576
-473
-264
-4
59
-160
-430
-549
-484
-310
-150
-89
-95
-111
-114
-100
-71
-36
-8
7
3
-14
-30
-47
-69
-94
-134
-174
-207
-231
-252
-275
-312
-357
-404
-456
-511
-570
-648
-739
-834
-935
-1033
-1129
-1226
-1318
-1403
-1477
-1530
-1561
-1585
-1578
-1547
-1492
-1416
-1324
-1218
-1099
-960
-813
-656
-502
-353
-208
-73
47
152
245
325
388
426
452
463
449
427
404
385
341
300
280
262
246
236
247
274
305
354
423
492
572
658
746
839
923
1001
1064
1110
1146
1170
1172
1140
1093
1045
997
948
884
797
713
650
611
589
568
541
524
514
507
518
541
585
648
689
704
714
733
766
808
855
895
917
913
882
821
745
649
536
421
288
137
-18
-174
-320
-457
-584
-692
-779
-852
-903
-940
-965
-973
-961
-931
-887
-836
-780
-717
-656
-596
-540
-488
-446
-419
-400
-390
-385
-391
-410
-435
-460
-480
-487
-492
-486
-471
-451
-421
-392
-357
-313
-264
-201
-138
-79
-7
63
128
182
230
272
302
313
290
260
224
189
149
94
23
-57
-128
-181
-215
-241
-268
-287
-291
-285
-263
-224
-180
-127
-59
14
93
172
243
313
377
435
482
509
526
529
528
517
494
466
430
380
336
298
260
228
202
182
177
181
191
207
222
246
281
316
358
394
428
461
482
500
505
500
482
444
391
331
261
182
91
-7
-94
-166
-229
-283
-316
-333
-333
-320
-296
-262
-214
-163
-108
-49
13
82
149
211
266
317
363
398
405
387
359
319
279
225
149
50
-60
-163
-249
-332
-404
-475
-536
-582
-609
-620
-627
-622
-592
-552
-513
-470
-419
-380
-351
-323
-307
-308
-325
-350
-383
-426
-471
-518
-560
-601
-643
-672
-693
-708
-712
-701
-679
-641
-594
-540
-479
-405
-325
-234
-133
-29
84
197
299
399
487
561
622
663
694
704
703
693
665
622
575
527
483
434
394
358
329
312
303
302
317
349
387
439
495
558
634
704
778
839
889
939
967
964
945
911
873
835
779
700
603
506
422
355
296
237
177
135
106
90
90
95
117
147
185
232
271
301
319
318
312
300
263
199
120
40
-47
-155
-264
-369
-479
-598
-713
-814
-921
-1024
-1116
-1198
-1267
-1325
-1369
-1409
-1430
-1442
-1433
-1407
-1379
-1339
-1299
-1269
-1244
-1231
-1223
-1218
-1226
-1232
-1234
-1229
-1219
-1195
-1157
-1099
-1017
-908
-774
-618
-450
-279
-106
70
266
485
745
1026
1266
1447
1611
1804
2047
2348
2614
2729
2647
2392
2017
1581
1104
577
-2
-612
-1216
-1749
-2178
-2496
-2706
-2826
-2859
-2811
-2702
-2529
-2312
-2083
-1858
-1636
-1399
-1150
-884
-612
-342
-69
203
477
739
981
1194
1383
1544
1670
1770
1842
1885
1906
1907
1898
1886
1873
1871
1879
1903
1936
1974
2015
2056
2101
2151
2202
2256
2306
2346
2382
2410
2426
2438
2433
2409
2374
2319
2255
2174
2065
1935
1783
1614
1436
1235
1016
787
533
270
4
-268
-538
-806
-1072
-1330
-1577
-1810
-2026
-2230
-2425
-2617
-2802
-2979
-3152
-3328
-3497
-3654
-3789
-3898
-3999
-4097
-4185
-4248
-4269
-4251
-4196
-4116
-4007
-3868
-3705
-3518
-3305
-3077
-2834
-2575
-2305
-2025
-1735
-1445
-1164
-884
-610
-341
-91
131
332
510
670
817
948
1058
1150
1227
1294
1345
1391
1438
1493
1568
1650
1740
1829
1914
2006
2094
2185
2282
2366
2434
2477
2505
2518
2514
2484
2426
2343
2231
2105
1961
1795
1614
1420
1227
1046
870
703
562
438
342
277
237
221
229
252
292
346
407
481
564
642
717
782
841
891
912
915
912
908
899
877
827
756
683
616
565
515
464
418
378
347
325
316
311
315
325
333
358
381
391
401
402
399
379
342
288
218
139
39
-75
-204
-342
-488
-648
-807
-967
-1132
-1292
-1443
-1579
-1702
-1812
-1912
-1996
-2066
-2118
-2163
-2200
-2234
-2266
-2300
-2336
-2369
-2403
-2441
-2491
-2544
-2604
-2660
-2715
-2772
-2829
-2873
-2899
-2902
-2889
-2843
-2761
-2660
-2524
-2359
-2179
-1969
-1745
-1511
-1263
-1012
-755
-494
-244
-7
218
422
610
770
905
1021
1129
1228
1311
1363
1388
1396
1402
1423
1443
1452
1464
1475
1497
1525
1557
1598
1641
1693
1749
1810
1870
1921
1964
2003
2044
2073
2090
2087
2065
2035
1986
1935
1875
1798
1716
1628
1548
1479
1412
1353
1307
1274
1260
1257
1261
1277
1301
1333
1378
1431
1486
1539
1587
1631
1663
1690
1708
1698
1672
1635
1586
1529
1457
1365
1272
1177
1082
991
905
825
745
675
619
571
535
506
481
465
464
476
496
514
523
533
535
531
509
464
410
355
296
224
126
2
-143
-287
-415
-533
-648
-774
-896
-1012
-1123
-1229
-1334
-1441
-1548
-1653
-1757
-1857
-1960
-2066
-2167
-2265
-2349
-2426
-2511
-2588
-2655
-2718
-2762
-2802
-2843
-2876
-2906
-2930
-2935
-2941
-2937
-2911
-2866
-2797
-2707
-2599
-2474
-2333
-2173
-1994
-1801
-1594
-1394
-1204
-1019
-846
-675
-515
-378
-259
-163
-75
2
58
97
123
138
155
174
186
203
221
239
269
308
348
407
472
533
611
694
778
859
936
1002
1049
1086
1096
1081
1057
1029
1006
974
925
851
764
687
624
581
540
500
466
443
433
433
444
466
499
536
573
616
652
678
698
709
716
708
679
631
567
488
402
299
191
74
-44
-153
-250
-343
-425
-489
-533
-558
-568
-570
-565
-549
-524
-490
-450
-415
-389
-377
-381
-390
-411
-453
-511
-590
-686
-786
-881
-985
-1087
-1179
-1257
-1319
-1382
-1428
-1462
-1481
-1486
-1464
-1421
-1351
-1260
-1154
-1034
-897
-744
-565
-385
-205
-28
136
289
418
529
631
722
810
879
920
933
926
926
931
942
957
965
975
994
1025
1068
1119
1179
1239
1306
1371
1435
1494
1540
1583
1621
1648
1657
1636
1599
1551
1486
1411
1328
1232
1137
1049
965
887
805
734
683
651
629
622
606
595
600
608
637
675
709
747
779
795
814
826
824
803
763
714
658
590
507
415
316
223
131
40
-39
-121
-194
-265
-332
-396
-445
-489
-524
-548
-555
-549
-536
-516
-497
-473
-453
-441
-440
-441
-439
-432
-430
-445
-487
-536
-571
-596
-613
-627
-653
-673
-684
-694
-686
-670
-650
-615
-570
-519
-454
-392
-331
-264
-200
-140
-97
-68
-52
-45
-51
-71
-102
-141
-188
-231
-271
-313
-355
-398
-436
-451
-452
-443
-435
-417
-385
-347
-294
-238
-184
-133
-87
-48
-9
21
34
31
18
-7
-31
-62
-99
-144
-200
-252
-307
-358
-400
-446
-479
-509
-537
-547
-553
-560
-564
-566
-557
-542
-519
-494
-472
-446
-433
-434
-439
-444
-450
-451
-464
-502
-558
-618
-674
-709
-736
-764
-790
-811
-823
-829
-821
-804
-781
-747
-703
-651
-598
-549
-507
-467
-434
-408
-402
-414
-437
-482
-536
-597
-672
-753
-826
-895
-953
-1005
-1050
-1073
-1071
-1038
-984
-920
-846
-755
-651
-528
-394
-259
-131
-9
109
228
347
459
554
628
694
749
794
824
830
818
811
801
798
798
787
772
757
765
809
875
923
931
930
967
1018
1046
1055
1045
1021
1000
964
918
872
835
804
779
747
704
657
629
626
637
660
684
714
760
811
873
936
1007
1075
1142
1211
1272
1318
1353
1368
1364
1345
1320
1294
1252
1189
1115
1035
951
874
802
723
635
527
424
318
206
104
1
-102
-204
-286
-338
-343
-320
-342
-382
-347
-223
-95
-2
83
168
248
331
415
489
558
613
656
687
701
710
716
718
718
728
736
736
739
752
759
768
778
780
771
740
703
702
728
737
722
700
694
698
682
642
590
529
482
455
425
389
342
290
233
172
119
63
2
-43
-82
-117
-143
-180
-231
-284
-342
-400
-458
-526
-612
-711
-811
-909
-1001
-1105
-1209
-1299
-1379
-1453
-1525
-1596
-1655
-1686
-1708
-1715
-1715
-1702
-1682
-1645
-1594
-1539
-1482
-1427
-1370
-1310
-1250
-1199
-1159
-1133
-1119
-1111
-1109
-1109
-1108
-1113
-1107
-1096
-1086
-1065
-1042
-1006
-960
-898
-825
-739
-644
-549
-451
-343
-221
-93
28
143
244
325
392
429
453
474
492
482
410
299
204
140
113
98
85
80
77
82
96
127
160
188
232
289
354
420
475
513
549
583
597
578
533
462
392
313
224
116
-9
-139
-278
-405
-529
-645
-750
-840
-910
-961
-999
-1029
-1046
-1047
-1028
-990
-939
-889
-844
-805
-770
-734
-705
-688
-681
-685
-692
-710
-736
-771
-819
-862
-898
-934
-959
-973
-974
-968
-951
-920
-879
-822
-763
-697
-618
-527
-432
-332
-237
-152
-70
3
55
97
128
155
180
184
168
122
63
15
-14
-38
-51
-69
-72
-58
-25
34
112
208
277
327
401
515
626
709
748
724
661
604
578
560
523
495
490
485
475
467
473
501
518
525
518
506
505
504
493
474
451
423
401
380
358
337
314
294
278
267
261
248
225
194
158
120
75
19
-53
-115
-180
-250
-301
-348
-383
-399
-405
-392
-359
-315
-262
-198
-121
-33
74
169
264
348
412
460
490
509
529
547
556
549
513
463
421
386
353
323
287
256
235
222
230
248
275
320
371
432
492
544
591
632
667
695
702
699
688
670
647
616
579
538
493
456
430
399
368
350
348
361
386
412
442
471
501
536
578
623
654
673
681
674
659
631
578
506
413
312
205
92
-15
-136
-247
-354
-459
-549
-633
-708
-773
-824
-864
-896
-916
-937
-951
-947
-931
-896
-855
-803
-755
-706
-669
-639
-607
-572
-538
-506
-501
-517
-548
-577
-594
-611
-630
-659
-689
-704
-713
-710
-701
-689
-659
-614
-558
-499
-446
-394
-345
-299
-270
-252
-252
-275
-305
-347
-401
-464
-536
-604
-671
-728
-789
-848
-892
-917
-920
-911
-892
-862
-822
-766
-701
-623
-548
-477
-411
-352
-296
-249
-211
-195
-192
-193
-201
-214
-237
-271
-309
-344
-386
-424
-447
-474
-484
-478
-461
-426
-377
-327
-265
-193
-113
-17
86
189
287
363
426
459
481
506
529
544
537
501
442
382
331
290
243
193
145
109
81
73
73
75
88
111
150
202
251
294
341
385
428
468
492
511
521
514
491
452
400
342
286
230
171
107
54
19
9
26
63
112
178
266
368
490
615
724
828
916
994
1068
1119
1148
1158
1151
1124
1089
1043
981
907
840
764
692
624
560
507
458
431
420
427
442
463
492
536
592
657
728
785
826
852
859
866
882
903
912
893
843
769
688
623
562
491
414
331
249
181
125
79
41
14
-4
5
15
26
44
44
48
45
28
12
-14
-49
-83
-128
-185
-244
-293
-326
-352
-384
-407
-421
-419
-391
-355
-320
-283
-239
-184
-121
-44
29
96
158
209
270
317
356
380
395
403
398
387
367
327
287
243
187
139
88
42
2
-27
-44
-44
-32
-19
0
26
56
96
144
180
202
205
177
139
94
43
-12
-92
-202
-344
-490
-616
-727
-819
-908
-991
-1057
-1097
-1109
-1096
-1067
-1023
-961
-886
-796
-703
-613
-524
-446
-371
-308
-262
-218
-189
-166
-156
-161
-177
-201
-226
-245
-277
-316
-353
-383
-395
-397
-396
-397
-397
-392
-376
-343
-316
-295
-283
-270
-255
-241
-230
-229
-243
-263
-286
-317
-349
-385
-412
-436
-461
-480
-496
-513
-516
-517
-502
-470
-427
-376
-329
-285
-232
-174
-107
-40
16
66
91
100
110
121
138
146
124
75
14
-36
-65
-86
-111
-139
-166
-179
-170
-148
-113
-66
-13
54
129
203
269
324
366
399
419
427
423
404
374
333
279
217
158
109
70
32
-9
-47
-69
-75
-70
-63
-51
-38
-16
16
66
112
147
178
191
212
237
253
259
254
239
215
186
151
111
66
31
-2
-24
-38
-56
-54
-40
-20
20
71
125
184
247
310
379
450
513
564
593
596
587
583
580
582
571
537
483
427
383
351
322
290
258
227
207
199
202
212
232
260
300
344
384
422
457
483
504
518
524
524
515
499
465
418
363
308
261
225
178
132
95
80
88
107
126
151
190
235
302
379
452
522
574
623
669
697
710
697
654
603
533
456
365
257
150
41
-76
-175
-266
-353
-421
-484
-526
-551
-571
-582
-594
-601
-590
-566
-531
-499
-473
-463
-474
-490
-495
-491
-485
-491
-524
-569
-612
-633
-639
-639
-637
-638
-631
-619
-590
-557
-519
-474
-427
-368
-302
-238
-171
-118
-79
-53
-39
-30
-31
-47
-74
-115
-161
-205
-248
-271
-291
-322
-350
-366
-366
-344
-320
-298
-276
-255
-227
-192
-155
-121
-95
-72
-52
-27
-7
4
1
-4
-16
-34
-59
-97
-153
-208
-265
-327
-366
-409
-439
-458
-473
-470
-453
-426
-395
-357
-309
-255
-186
-111
-45
10
50
68
74
79
93
104
90
51
-8
-66
-97
-116
-127
-142
-151
-148
-134
-98
-52
-1
59
124
202
290
370
436
493
537
574
600
614
625
625
612
588
548
503
462
430
400
359
316
280
262
260
263
266
273
286
302
336
372
393
413
422
429
445
452
455
449
436
418
395
363
324
280
237
192
145
111
80
59
49
50
74
117
164
216
266
327
398
486
579
656
721
770
796
825
864
903
931
927
892
837
785
750
719
687
644
601
565
537
517
498
480
461
446
438
423
404
377
336
286
238
183
139
90
34
-15
-80
-143
-196
-231
-250
-280
-308
-327
-333
-317
-286
-249
-213
-170
-124
-66
-5
44
83
111
134
158
180
189
178
154
116
66
11
-50
-122
-200
-279
-363
-435
-504
-576
-634
-682
-717
-731
-734
-728
-706
-675
-634
-586
-526
-470
-426
-405
-406
-410
-405
-393
-385
-402
-442
-497
-549
-583
-601
-607
-615
-618
-612
-602
-576
-553
-519
-484
-441
-383
-325
-264
-209
-171
-139
-112
-90
-70
-66
-70
-91
-136
-182
-225
-261
-289
-331
-377
-425
-462
-478
-480
-480
-483
-474
-453
-416
-368
-331
-305
-282
-267
-246
-222
-211
-213
-227
-258
-290
-320
-355
-402
-455
-504
-548
-583
-616
-645
-662
-671
-660
-627
-587
-536
-480
-411
-333
-247
-144
-50
34
101
149
197
256
324
388
427
441
444
448
459
475
478
470
456
439
434
441
444
454
468
490
521
549
583
610
625
631
628
625
620
605
584
552
499
448
397
355
324
288
253
221
198
190
183
168
145
120
89
62
32
10
19
71
171
327
513
726
952
1196
1449
1723
2007
2290
2554
2801
3007
3181
3316
3391
3412
3366
3244
3062
2819
2512
2155
1773
1382
998
638
306
4
-262
-507
-727
-896
-1012
-1088
-1142
-1199
-1268
-1334
-1381
-1412
-1435
-1456
-1481
-1504
-1509
-1480
-1428
-1372
-1311
-1257
-1197
-1134
-1086
-1054
-1044
-1056
-1089
-1146
-1222
-1320
-1425
-1529
-1641
-1768
-1906
-2031
-2104
-2144
-2165
-2179
-2166
-2107
-2017
-1901
-1773
-1641
-1510
-1371
-1204
-1002
-764
-509
-258
-17
211
435
638
820
975
1097
1201
1292
1372
1455
1542
1627
1731
1837
1953
2075
2194
2327
2469
2592
2676
2710
2692
2623
2511
2351
2142
1869
1550
1198
835
467
101
-274
-656
-1022
-1366
-1674
-1940
-2160
-2336
-2473
-2571
-2636
-2659
-2630
-2565
-2463
-2324
-2166
-1977
-1772
-1566
-1359
-1168
-990
-827
-674
-539
-429
-343
-288
-258
-243
-238
-233
-235
-259
-290
-326
-345
-346
-336
-327
-310
-279
-230
-150
-60
28
122
222
327
442
553
658
743
820
893
956
1011
1052
1072
1086
1091
1099
1112
1119
1126
1133
1146
1171
1201
1231
1265
1296
1322
1358
1391
1417
1433
1424
1399
1355
1308
1267
1227
1167
1083
982
875
788
715
655
599
546
505
472
462
458
461
480
512
556
604
654
698
738
765
781
788
779
745
691
615
516
408
296
186
94
-6
-108
-209
-298
-369
-422
-474
-522
-564
-602
-614
-602
-580
-560
-538
-519
-492
-467
-453
-451
-469
-500
-540
-583
-633
-694
-765
-841
-925
-992
-1055
-1116
-1170
-1217
-1247
-1253
-1249
-1232
-1197
-1152
-1098
-1018
-934
-848
-771
-709
-661
-612
-557
-489
-433
-399
-382
-377
-361
-323
-278
-236
-190
-143
-90
-13
74
167
266
359
457
565
672
768
858
930
993
1053
1107
1150
1179
1201
1199
1183
1162
1139
1124
1096
1059
1014
976
956
949
953
954
958
966
982
1007
1029
1036
1032
1015
999
979
946
898
830
750
659
561
458
345
233
125
22
-67
-145
-221
-283
-334
-371
-389
-402
-408
-414
-418
-416
-407
-386
-367
-363
-367
-377
-388
-385
-369
-370
-392
-435
-486
-521
-544
-562
-583
-612
-644
-666
-671
-673
-668
-660
-646
-628
-600
-567
-537
-516
-507
-507
-509
-519
-539
-570
-617
-678
-739
-798
-850
-894
-943
-998
-1043
-1068
-1073
-1059
-1042
-1022
-998
-966
-920
-855
-802
-758
-718
-679
-638
-601
-572
-560
-559
-565
-568
-567
-566
-572
-577
-583
-581
-571
-555
-535
-504
-465
-416
-369
-323
-269
-210
-151
-86
-22
34
76
93
101
103
113
134
151
146
116
73
40
24
12
-7
-28
-60
-89
-108
-117
-119
-110
-102
-85
-61
-36
-10
3
5
4
0
3
9
14
12
4
-18
-25
-18
0
22
34
40
51
73
108
139
165
190
221
257
301
333
349
345
337
327
313
293
259
215
166
117
71
25
-24
-75
-125
-164
-192
-219
-233
-238
-240
-222
-195
-166
-132
-97
-65
-24
20
62
100
117
121
125
134
159
179
180
159
128
113
124
149
167
168
159
158
168
194
220
251
286
332
387
438
484
524
555
569
567
567
561
541
507
446
371
293
215
142
60
-26
-117
-186
-235
-264
-281
-302
-313
-304
-273
-223
-176
-140
-110
-84
-45
3
44
78
101
116
132
149
155
149
132
106
83
60
25
-6
-37
-58
-68
-75
-78
-72
-61
-45
-19
8
37
58
69
67
65
64
82
87
71
41
-6
-38
-59
-68
-84
-112
-142
-167
-174
-173
-171
-162
-154
-139
-115
-89
-69
-57
-55
-52
-55
-55
-56
-69
-90
-129
-174
-213
-245
-269
-303
-345
-385
-409
-417
-412
-407
-403
-393
-378
-348
-309
-281
-263
-247
-230
-207
-186
-170
-164
-166
-172
-178
-178
-186
-195
-207
-214
-206
-203
-195
-185
-172
-151
-122
-90
-55
-8
36
77
128
175
217
242
249
242
235
232
225
203
150
77
6
-44
-79
-105
-137
-171
-208
-236
-242
-243
-237
-227
-216
-196
-167
-140
-125
-123
-140
-160
-178
-201
-229
-269
-322
-386
-444
-488
-518
-551
-587
-629
-659
-665
-652
-626
-607
-585
-552
-507
-445
-382
-330
-282
-235
-181
-124
-77
-43
-17
-8
0
12
18
16
4
-13
-20
-21
-25
-26
-24
-17
-1
16
32
52
77
107
147
190
228
253
264
256
248
255
267
272
251
212
159
119
94
76
58
29
5
-13
-11
5
29
61
100
150
209
275
332
377
403
415
422
426
419
386
333
255
173
93
27
-37
-114
-192
-265
-316
-349
-367
-381
-392
-397
-385
-352
-319
-291
-274
-265
-249
-232
-221
-222
-241
-279
-319
-357
-389
-429
-470
-513
-550
-572
-586
-587
-584
-566
-531
-484
-427
-363
-291
-218
-139
-52
30
99
154
188
215
249
291
329
346
336
309
299
309
326
348
369
393
438
522
632
760
896
1025
1153
1281
1403
1513
1617
1731
1870
2060
2290
2487
2603
2655
2692
2756
2857
2944
2908
2723
2412
1985
1477
913
305
-333
-962
-1537
-2024
-2411
-2718
-2962
-3139
-3244
-3274
-3240
-3166
-3080
-2995
-2911
-2817
-2705
-2565
-2411
-2240
-2057
-1848
-1612
-1360
-1092
-812
-527
-238
48
322
585
833
1054
1259
1443
1596
1725
1812
1869
1905
1928
1938
1926
1871
1780
1676
1582
1509
1444
1371
1294
1218
1160
1123
1093
1071
1052
1038
1036
1045
1056
1060
1046
1018
980
932
882
804
698
559
381
195
6
-173
-354
-532
-709
-869
-1002
-1107
-1184
-1246
-1291
-1314
-1302
-1269
-1228
-1190
-1151
-1109
-1059
-1000
-950
-906
-878
-858
-837
-827
-825
-832
-844
-863
-879
-893
-908
-916
-919
-915
-896
-875
-848
-812
-775
-730
-687
-645
-605
-576
-552
-540
-520
-489
-458
-436
-434
-451
-466
-472
-462
-457
-457
-458
-462
-450
-418
-370
-307
-240
-164
-73
26
130
225
311
393
468
544
620
685
735
759
769
771
777
777
769
754
729
717
717
729
746
765
789
810
830
844
856
862
854
853
855
856
855
834
788
736
687
641
603
565
512
461
415
368
336
313
302
303
311
320
337
357
381
418
461
502
525
512
480
448
437
455
469
471
334
-19
-359
-480
-390
-199
20
247
480
721
966
1195
1388
1525
1598
1613
1585
1516
1404
1258
1080
894
709
517
324
120
-86
-285
-478
-669
-836
-988
-1118
-1173
-1181
-1189
-1192
-1167
-1126
-1083
-1027
-964
-903
-853
-808
-756
-697
-640
-595
-563
-555
-557
-555
-548
-541
-532
-527
-540
-600
-692
-750
-767
-754
-696
-607
-503
-395
-294
-231
-202
-215
-261
-340
-427
-495
-542
-558
-557
-549
-548
-551
-548
-530
-493
-461
-438
-429
-430
-432
-426
-421
-415
-412
-411
-404
-394
-374
-369
-377
-390
-403
-409
-405
-406
-413
-434
-464
-478
-456
-391
-333
-350
-429
-516
-584
-601
-559
-487
-407
-305
-156
24
208
374
509
614
697
746
748
700
605
485
352
216
82
-46
-169
-268
-324
-350
-346
-311
-248
-159
-42
85
216
368
537
707
849
938
997
1057
1114
1168
1217
1247
1257
1235
1199
1156
1062
964
919
907
943
1021
1079
1168
1345
1548
1713
1793
1785
1734
1684
1647
1597
1500
1357
1173
934
676
458
204
-165
-526
-755
-848
-879
-880
-869
-838
-795
-756
-741
-757
-800
-848
-889
-929
-987
-1048
-1107
-1153
-1171
-1176
-1174
-1161
-1150
-1133
-1101
-1068
-1035
-999
-967
-919
-865
-809
-746
-672
-586
-489
-372
-258
-141
-17
107
232
351
461
549
615
663
701
742
780
786
768
718
652
596
550
510
461
406
349
307
283
267
258
254
253
259
280
298
306
306
295
283
282
288
287
270
226
170
115
70
27
-26
-87
-150
-198
-231
-250
-260
-262
-249
-217
-163
-106
-57
-8
30
73
120
140
118
66
15
-17
-30
-40
-69
-113
-164
-184
-188
-186
-174
-157
-131
-94
-48
1
53
99
144
184
224
267
308
351
392
426
448
427
354
263
183
135
126
136
138
131
121
118
138
176
223
267
309
354
404
462
518
565
591
608
624
642
657
655
638
596
551
508
479
448
410
372
333
310
311
320
330
346
361
385
426
464
490
510
523
540
573
587
588
577
549
520
487
442
388
319
244
175
98
24
-40
-99
-140
-171
-189
-204
-197
-179
-156
-124
-98
-80
-77
-87
-102
-113
-116
-128
-162
-222
-295
-366
-417
-460
-505
-557
-610
-649
-668
-660
-636
-594
-551
-492
-418
-337
-256
-181
-130
-83
-40
3
43
67
63
40
9
-20
-38
-65
-97
-136
-173
-195
-201
-196
-180
-157
-125
-70
-6
45
84
112
128
150
159
152
136
102
64
24
-15
-55
-101
-151
-192
-221
-241
-250
-250
-241
-218
-188
-153
-112
-59
-2
61
120
171
211
231
240
243
252
263
257
227
182
126
89
66
43
17
-11
-42
-66
-74
-75
-73
-70
-59
-35
-1
40
77
98
105
119
135
158
178
180
161
130
100
86
78
61
34
1
-33
-61
-77
-101
-133
-163
-188
-200
-211
-233
-262
-285
-298
-300
-306
-313
-330
-360
-387
-415
-449
-487
-536
-589
-627
-666
-697
-717
-741
-748
-752
-742
-725
-701
-667
-631
-594
-564
-546
-543
-554
-568
-573
-571
-568
-585
-621
-658
-679
-678
-661
-641
-621
-599
-562
-508
-438
-364
-286
-212
-145
-63
15
79
128
157
174
192
200
200
186
144
88
32
-16
-62
-104
-150
-193
-220
-232
-235
-226
-196
-138
-66
37
149
211
201
139
63
-31
-199
-435
-801
-1331
-1949
-2523
-2897
-3042
-3068
-3083
-3090
-2996
-2735
-2346
-1905
-1464
-1060
-693
-351
-33
256
511
726
898
1035
1141
1238
1325
1421
1528
1629
1711
1766
1792
1811
1834
1852
1847
1821
1776
1719
1665
1614
1555
1495
1428
1355
1290
1225
1148
1059
960
858
768
684
605
521
426
327
236
169
113
64
8
-46
-78
-99
-92
-76
-50
-18
25
83
149
219
270
315
355
387
408
411
393
355
310
263
212
157
97
42
-2
-30
-50
-52
-43
-19
20
70
127
195
277
362
453
540
615
671
699
719
736
748
752
730
683
621
559
511
477
443
400
351
305
274
260
255
258
261
268
291
317
330
329
308
275
243
213
174
129
68
-4
-81
-147
-199
-248
-299
-349
-394
-423
-425
-418
-400
-372
-340
-290
-227
-172
-129
-96
-66
-24
14
35
34
12
-16
-43
-69
-101
-143
-195
-236
-276
-317
-347
-370
-385
-391
-396
-401
-401
-397
-386
-377
-367
-367
-382
-418
-467
-514
-558
-599
-659
-731
-812
-889
-938
-973
-1006
-1045
-1087
-1126
-1155
-1167
-1166
-1153
-1132
-1104
-1058
-995
-929
-871
-824
-786
-753
-721
-691
-672
-675
-697
-726
-748
-754
-758
-757
-759
-752
-727
-682
-630
-571
-503
-431
-345
-246
-159
-87
-28
22
78
129
164
181
176
169
164
160
156
148
129
124
131
149
178
211
257
311
372
438
506
575
647
711
767
801
822
824
807
789
771
745
693
616
518
417
336
264
196
123
56
-3
-43
-54
-56
-47
-32
-18
8
37
67
86
93
95
96
105
115
120
109
81
59
53
61
70
72
66
59
67
86
106
137
167
200
247
300
340
370
387
400
424
437
433
409
366
322
282
234
183
125
56
0
-49
-81
-107
-125
-127
-118
-92
-56
-15
30
77
123
154
163
159
140
115
102
98
93
79
55
25
9
18
33
53
61
59
62
77
107
145
188
228
270
320
374
422
450
463
471
471
474
466
442
402
345
298
267
233
198
154
106
66
42
32
27
30
36
50
82
110
132
144
151
154
159
146
109
55
-7
-65
-114
-164
-217
-275
-328
-376
-413
-437
-459
-475
-484
-492
-494
-493
-482
-464
-437
-404
-384
-372
-368
-369
-358
-335
-303
-279
-277
-288
-294
-279
-245
-212
-183
-160
-134
-97
-44
16
78
145
209
281
364
430
480
510
521
531
535
524
496
443
372
297
232
181
133
95
59
27
18
14
13
13
9
1
-1
-9
-40
-85
-136
-188
-229
-272
-324
-395
-466
-528
-575
-615
-652
-695
-732
-761
-785
-805
-818
-820
-811
-790
-761
-740
-703
-659
-608
-548
-490
-442
-401
-374
-337
-291
-248
-214
-206
-218
-243
-253
-246
-240
-237
-242
-251
-248
-230
-204
-167
-131
-88
-35
25
79
129
166
185
204
221
236
238
217
186
142
106
80
50
24
-1
-23
-31
-23
-12
4
29
59
97
146
191
219
240
258
287
308
317
306
274
241
211
178
138
82
19
-41
-86
-120
-138
-142
-136
-119
-89
-61
-24
30
87
157
227
286
333
368
402
446
497
537
547
533
502
482
483
495
492
480
458
442
439
443
450
454
451
449
456
468
469
456
439
426
414
403
393
358
300
237
173
119
69
11
-46
-101
-136
-149
-149
-143
-126
-98
-55
-2
50
87
115
139
169
198
210
210
187
157
129
98
71
32
-17
-58
-88
-108
-122
-125
-119
-114
-101
-94
-84
-68
-49
-21
11
32
33
18
-4
-16
-10
4
-1
-24
-58
-86
-92
-81
-69
-60
-69
-74
-63
-43
-17
15
40
66
102
139
165
170
154
138
121
105
89
53
-4
-72
-131
-181
-216
-243
-275
-296
-307
-295
-264
-230
-194
-149
-92
-16
67
139
190
231
272
314
343
354
345
316
292
263
230
190
138
86
37
-8
-47
-90
-123
-149
-173
-200
-226
-245
-259
-259
-252
-251
-263
-296
-333
-363
-382
-385
-397
-427
-469
-511
-538
-545
-537
-531
-541
-543
-540
-513
-472
-429
-385
-340
-286
-226
-163
-115
-80
-54
-31
-2
23
38
35
14
-12
-29
-29
-24
-21
-20
-18
-1
28
65
93
120
154
197
243
287
312
322
332
346
362
368
355
323
286
250
211
165
108
45
-12
-56
-93
-122
-144
-158
-161
-156
-146
-126
-101
-69
-28
11
47
69
73
71
75
89
113
116
95
65
38
38
52
58
58
50
38
31
40
55
74
93
108
137
170
197
215
214
210
216
227
237
245
249
240
227
227
247
288
326
364
412
475
558
635
690
731
756
780
804
797
771
731
687
660
635
609
577
527
473
422
366
305
231
137
39
-69
-182
-291
-406
-525
-639
-744
-844
-934
-1017
-1090
-1147
-1195
-1239
-1286
-1335
-1378
-1404
-1407
-1407
-1423
-1456
-1493
-1510
-1496
-1464
-1427
-1389
-1353
-1306
-1237
-1150
-1061
-966
-874
-785
-689
-588
-498
-416
-347
-282
-209
-136
-61
0
37
58
78
108
138
162
182
205
227
260
299
331
363
397
428
468
508
533
547
551
555
565
562
550
520
479
438
398
351
306
247
197
160
125
103
89
87
96
118
149
187
237
297
372
445
515
576
619
649
682
716
752
770
760
728
692
670
667
674
679
678
678
688
713
748
787
821
853
885
920
950
959
953
937
919
903
881
856
811
748
675
608
559
508
447
388
331
284
253
224
195
168
142
133
132
127
116
100
88
88
93
85
72
42
9
-19
-44
-68
-100
-139
-175
-200
-221
-225
-226
-215
-191
-161
-127
-91
-48
-1
45
90
123
133
135
123
112
117
116
100
63
10
-40
-72
-95
-120
-149
-189
-226
-254
-267
-270
-271
-269
-269
-255
-234
-225
-236
-261
-299
-330
-361
-399
-444
-509
-584
-660
-723
-773
-826
-875
-929
-977
-1004
-1008
-1000
-983
-948
-866
-734
-613
-532
-478
-429
-355
-277
-217
-188
-190
-203
-204
-192
-180
-167
-159
-157
-145
-134
-120
-120
-130
-139
-145
-157
-169
-186
-197
-201
-205
-214
-234
-263
-287
-305
-307
-299
-297
-315
-356
-399
-421
-427
-421
-419
-419
-418
-404
-372
-324
-274
-222
-162
-94
-25
49
106
139
155
170
188
205
206
183
139
95
66
57
46
39
31
21
16
14
-7
-31
-61
-151
-292
-419
-500
-540
-569
-621
-640
-608
-553
-492
-445
-381
-301
-216
-137
-79
-35
7
47
76
84
81
91
110
133
148
157
161
171
192
210
226
226
208
192
188
204
219
223
204
173
150
139
144
148
143
131
125
130
145
171
197
224
259
304
350
382
397
398
390
390
397
400
396
367
322
282
252
231
206
177
156
143
147
162
178
196
210
233
267
292
297
284
260
234
208
168
114
42
-36
-105
-171
-235
-295
-362
-413
-443
-468
-482
-488
-478
-460
-427
-391
-361
-328
-295
-255
-219
-197
-193
-220
-263
-315
-376
-436
-511
-594
-662
-696
-670
-575
-426
-239
-17
243
533
841
1151
1448
1739
2009
2253
2465
2642
2759
2812
2809
2750
2635
2469
2245
1968
1648
1310
975
658
358
78
-183
-414
-600
-741
-848
-913
-946
-944
-903
-831
-751
-670
-594
-509
-424
-361
-337
-353
-377
-396
-434
-493
-575
-682
-798
-908
-1020
-1127
-1245
-1375
-1486
-1588
-1687
-1777
-1827
-1834
-1797
-1742
-1718
-1729
-1755
-1791
-1829
-1848
-1863
-1881
-1900
-1902
-1855
-1751
-1591
-1390
-1165
-933
-685
-425
-181
28
220
390
527
644
761
877
971
1048
1111
1180
1272
1381
1491
1593
1685
1768
1874
2006
2129
2225
2292
2339
2369
2391
2393
2366
2314
2243
2166
2088
1999
1908
1801
1697
1603
1503
1408
1302
1179
1062
973
909
875
864
860
825
768
781
833
825
754
653
540
428
319
206
68
-72
-210
-364
-528
-708
-902
-1081
-1242
-1379
-1501
-1624
-1738
-1827
-1881
-1890
-1878
-1853
-1814
-1761
-1687
-1586
-1466
-1341
-1210
-1075
-932
-774
-625
-492
-373
-274
-172
-70
29
114
180
223
255
302
362
423
481
539
598
663
738
817
893
957
1015
1079
1142
1186
1211
1217
1206
1191
1171
1131
1061
959
837
711
590
460
327
191
61
-54
-162
-255
-332
-391
-437
-463
-481
-492
-482
-466
-437
-400
-373
-356
-345
-334
-312
-289
-264
-259
-272
-299
-313
-303
-277
-238
-197
-161
-110
-40
40
139
224
301
377
446
523
586
625
647
655
659
658
645
609
550
475
397
334
276
217
157
94
45
14
-2
-4
-3
3
16
35
59
65
61
51
39
37
28
6
-34
-82
-125
-165
-206
-248
-290
-337
-377
-411
-439
-454
-460
-456
-442
-419
-396
-364
-326
-279
-224
-177
-141
-125
-125
-132
-137
-145
-171
-221
-297
-378
-443
-484
-515
-540
-573
-608
-626
-627
-613
-587
-561
-541
-514
-481
-447
-423
-419
-426
-433
-436
-437
-440
-464
-507
-552
-589
-604
-611
-611
-615
-614
-600
-567
-528
-486
-436
-389
-331
-253
-179
-111
-45
12
76
142
191
232
250
258
266
277
284
279
264
242
234
229
231
242
251
271
307
347
395
453
517
591
664
731
784
816
839
864
891
918
924
899
857
807
772
753
738
719
691
667
653
652
666
687
706
724
745
775
804
813
808
791
771
760
747
725
681
623
558
494
446
399
349
299
247
208
188
184
181
184
188
202
228
243
248
244
232
225
214
183
138
71
-6
-81
-157
-235
-313
-404
-487
-554
-608
-650
-684
-709
-720
-717
-703
-689
-666
-634
-587
-542
-510
-495
-496
-508
-524
-539
-563
-609
-693
-807
-928
-1041
-1142
-1247
-1358
-1462
-1555
-1620
-1661
-1679
-1673
-1650
-1615
-1557
-1476
-1397
-1325
-1268
-1224
-1168
-1110
-1053
-1001
-967
-948
-924
-887
-833
-780
-731
-686
-636
-581
-507
-433
-358
-279
-200
-109
-18
57
115
159
200
249
287
316
331
336
345
357
383
415
434
431
432
439
464
514
570
625
666
688
708
726
744
769
788
797
787
758
719
676
653
639
626
601
550
487
435
405
383
368
353
330
319
329
353
383
416
440
464
496
525
553
558
546
532
515
489
461
415
349
273
199
145
113
74
37
4
-24
-33
-24
-16
-6
6
16
35
51
54
45
24
9
-7
-34
-72
-127
-190
-252
-307
-356
-401
-444
-481
-496
-491
-475
-447
-413
-374
-329
-281
-238
-186
-137
-87
-34
10
41
57
58
61
76
101
114
93
51
7
-25
-35
-41
-49
-70
-95
-117
-118
-100
-89
-73
-63
-58
-39
-18
-6
-9
-24
-37
-50
-62
-83
-119
-179
-249
-312
-362
-397
-440
-486
-521
-545
-549
-537
-521
-498
-471
-428
-372
-319
-281
-247
-219
-186
-148
-129
-124
-143
-174
-204
-234
-275
-323
-384
-450
-498
-542
-572
-589
-596
-587
