0,0
869,999
884,1018
852,1015
822,968
920,1084
817,970
904,1051
878,1094
857,1085
955,1091
871,1120
965,1122
916,1128
919,1139
989,1123
956,1206
999,1155
997,1241
1000,1231
1008,1194
1022,1326
1046,1229
1058,1321
1057,1320
1035,1295
1149,1355
1087,1332
1092,1363
1117,1399
1096,1421
1156,1450
1135,1385
1168,1469
1154,1425
1208,1479
1209,1508
1200,1516
1270,1608
1220,1594
1306,1673
1273,1695
1320,1779
1366,1826
1358,1912
1470,1943
1437,1986
1536,2094
1541,2112
1597,2201
1645,2295
1710,2404
1794,2410
1820,2585
1904,2688
1933,2747
2089,2957
2142,3024
2307,3298
2442,3447
2576,3634
2763,3926
2842,4091
3075,4415
3192,4613
3367,4930
3539,5090
3614,5280
3783,5463
3801,5573
3981,5768
4034,5856
4124,6076
4270,6195
4299,6314
4372,6480
4409,6574
4600,6715
4536,6787
4686,6938
4707,7023
4748,7089
4852,7172
4796,7206
4929,7273
4906,7364
4917,7374
4987,7363
4902,7403
5004,7434
5040,7502
5042,7552
5117,7549
5149,7739
5241,7774
5301,7908
5357,8044
5456,8072
5488,8228
5602,8327
5598,8421
5719,8503
5704,8555
5817,8699
5842,8737
5865,8832
6008,8918
5992,8983
6115,9102
6106,9112
6177,9221
6224,9245
6251,9379
6383,9465
6368,9525
6560,9776
6619,9880
6751,10097
7003,10419
7126,10765
7518,11214
7736,11617
8019,12064
8397,12559
8570,12986
8955,13414
9180,13831
9467,14204
9727,14598
9887,14952
10273,15417
10536,15886
10954,16554
11488,17265
12034,18248
12811,19355
13561,20634
14477,21940
15387,23376
16262,24703
17117,26008
17945,27275
18804,28538
19718,29977
20687,31429
21765,33017
22796,34686
23951,36314
25123,38118
26331,39956
27622,41959
29119,44190
30785,46703
32622,49461
34741,52408
36924,55645
38977,58659
40989,61516
42763,64098
44513,66335
46398,68960
48253,71576
50018,74136
51785,76714
53512,78899
54986,80702
56110,81957
57124,82755
58079,83681
58906,84396
59664,85022
60259,85495
60765,85690
61138,85662
61265,85221
61230,84476
60995,83472
60661,82295
61413,82532
63606,84392
66561,87499
69804,91033
72593,93882
74823,96332
76642,98282
78290,99842
79599,101363
80799,102725
81741,103957
82527,105128
83491,106323
84291,107386
85047,108269
85690,109097
86242,109719
86804,110326
87224,110813
87687,111227
88090,111525
88562,111944
102096,120509
102661,120853
103159,121161
103600,121413
103913,121611
104213,121847
104453,122005
104764,122188
105020,122381
107113,123513
107256,123620
107446,123680
107609,123744
107801,123824
108007,123895
108160,123968
108385,124036
108512,124118
108694,124138
108898,124263
109031,124297
109233,124364
109349,124444
109532,124466
109645,124563
109734,124559
111122,125051
111165,125031
111223,125063
111249,125083
111305,125102
111332,125079
111337,125097
111388,125067
111617,125097
111594,125089
111612,125076
111633,125069
111633,125067
111661,125059
111642,125041
111668,125051
111678,125046
111675,125058
111711,125066
111734,125063
111728,125047
111771,125062
111765,125026
111777,125040
112026,125028
112033,125008
112029,125000
112025,124984
112061,125023
112041,124963
111145,124308
110972,124225
110865,124140
110732,124035
110637,124023
110573,123962
110475,123918
110423,123880
110399,123855
110400,123856
110348,123825
110361,123797
110391,123852
110393,123829
110565,123930
110579,123921
110639,123933
110662,123929
110729,123996
110760,123984
110792,124036
110821,124032
110877,124019
110877,124073
110924,124048
111002,124074
110990,124095
111037,124105
111053,124115
111120,124110
111155,124147
111149,124129
111200,124166
111188,124151
111221,124149
111203,124151
111210,124132
111226,124140
111198,124144
111228,124105
111255,124155
111238,124152
111233,124100
111295,124132
111239,124133
111276,124127
111316,124168
111301,124129
111337,124148
111347,124172
111386,124176
111406,124161
111403,124149
111420,124168
111406,124157
111448,124179
111426,124178
111393,124122
111431,124145
111374,124117
111379,124106
111382,124111
111335,124059
111340,124081
111304,124023
111290,124044
111244,124010
111224,123987
111218,123988
111223,123956
111178,123964
111177,123959
111143,123929
111159,123917
111144,123924
111096,123888
111133,123929
111088,123870
111097,123892
111096,123890
111118,123864
111119,123886
111112,123862
111161,123904
111140,123897
111171,123883
111187,123914
111198,123883
111259,123920
111282,123952
111287,123913
111329,123965
111332,123979
111384,123969
111398,123997
111432,123979
111466,123989
111456,124020
111479,123992
111470,124039
111456,124015
111483,124036
111474,124020
111483,124007
111507,123977
111503,124000
111486,123980
111538,123994
111486,124006
111535,123990
111546,124015
111551,123987
111535,123995
111554,124032
111562,124001
111625,124015
111587,124018
111612,124005
111656,124063
111629,124000
111650,124032
111659,124029
111642,124036
111667,124018
111695,124022
111696,124074
111684,124037
111745,124031
111709,124042
111717,124044
111766,124061
111771,124052
111796,124074
111773,124040
111807,124065
111767,124101
111790,124048
111799,124072
111797,124047
111820,124049
111792,124086
111807,124061
111819,124087
111827,124024
111860,124059
111821,124078
111825,124040
111874,124075
111849,124033
111874,124028
111857,124075
111878,124041
111893,124074
111877,124058
111890,124059
111870,124072
111882,124044
111911,124073
111918,124053
111922,124058
111912,124043
111945,124078
111912,124074
111957,124064
111967,124055
111948,124060
111952,124042
111998,124062
111978,124082
111997,124041
112006,124070
112019,124065
111998,124047
112043,124101
112047,124065
111997,124074
112045,124086
112009,124052
112052,124075
112049,124080
112040,124020
112043,124094
112042,124015
112055,124057
112039,124052
112019,124047
112032,124059
112053,124033
112063,124048
112063,124039
112097,124037
112063,124055
112066,124031
112105,124046
112096,124080
112097,124051
112155,124067
112108,124062
112129,124057
112146,124088
112136,124036
112161,124059
112145,124051
112179,124069
112183,124070
112157,124043
112178,124047
112187,124089
112203,124049
112210,124065
112201,124071
112206,124052
112218,124095
112220,124063
112201,124083
112236,124038
112269,124071
112229,124084
112249,124057
112276,124097
112260,124052
112258,124055
112275,124068
112272,124082
112271,124073
112282,124047
112292,124088
112263,124059
112267,124041
112298,124066
112223,124013
112200,124000
112193,123992
112125,123923
112037,123896
111894,123788
111805,123719
111666,123675
111594,123615
111505,123563
111396,123485
111270,123418
111172,123361
111106,123292
110992,123290
110917,123195
110872,123205
110807,123180
110777,123128
110782,123168
110715,123113
110733,123124
110715,123097
110732,123080
110743,123142
110729,123076
110784,123115
110780,123148
110785,123113
110821,123125
110864,123145
110888,123180
110903,123201
110978,123228
110985,123208
111052,123248
111097,123285
111154,123276
111181,123324
111200,123322
111276,123357
111263,123371
111308,123363
111376,123399
111369,123377
111393,123402
111439,123437
111407,123396
111471,123469
111488,123466
111490,123427
111494,123454
111525,123467
111557,123452
111553,123503
111577,123493
111623,123516
111621,123496
111645,123508
111621,123516
111650,123513
111693,123532
111707,123537
111726,123549
111729,123509
111719,123537
111743,123560
111742,123562
111727,123523
111767,123556
111742,123556
111753,123546
111733,123551
111751,123514
111747,123556
111705,123515
111746,123512
111681,123516
111674,123475
111669,123473
111669,123486
111652,123468
111658,123434
111625,123426
111653,123462
111591,123440
111624,123403
111634,123457
111614,123402
111635,123427
111641,123457
111636,123404
111647,123460
111644,123437
111689,123456
111665,123473
111689,123455
111716,123475
111705,123472
111744,123463
111728,123460
111751,123468
111777,123496
111761,123495
111798,123490
111790,123517
111825,123503
111798,123498
111829,123517
111823,123505
111833,123508
111836,123518
111864,123536
111878,123524
111872,123524
111877,123518
111906,123526
111933,123551
111900,123532
111950,123562
111933,123552
111980,123552
111935,123565
111989,123557
111998,123571
111996,123554
111985,123575
112012,123567
111996,123575
111989,123590
111992,123581
112032,123571
112043,123571
112020,123582
112036,123561
112033,123572
112042,123566
112010,123564
112061,123591
112032,123562
112049,123561
112037,123578
112060,123597
112064,123578
112012,123564
112074,123587
112057,123583
112064,123549
112074,123565
112082,123549
112094,123611
112081,123537
112097,123574
112077,123588
112076,123555
112084,123589
112071,123560
112129,123572
112075,123581
112088,123568
112051,123552
112091,123555
112085,123582
112070,123517
112122,123556
112083,123539
112088,123532
112105,123550
112071,123544
112067,123513
112089,123551
112078,123515
112097,123513
112072,123549
112081,123502
112117,123536
112081,123505
112108,123504
112065,123529
112111,123500
112104,123543
112094,123498
112133,123515
112103,123506
112090,123528
112120,123501
112134,123527
112134,123523
112116,123476
112156,123509
112119,123539
112145,123502
112138,123540
112125,123460
112169,123517
112131,123540
112150,123506
112161,123540
112167,123505
112155,123505
112172,123521
112178,123478
112186,123522
112177,123539
112149,123505
112190,123513
112171,123523
112177,123497
112174,123542
112150,123514
112176,123509
112214,123511
112170,123534
112199,123493
112203,123529
112171,123513
112222,123528
112208,123518
112207,123539
112173,123515
112226,123497
112194,123511
112187,123482
112205,123519
112172,123489
112215,123498
112190,123511
112211,123469
112191,123510
112192,123480
112238,123497
112199,123501
112182,123510
112174,123476
112216,123468
112191,123482
112206,123486
112185,123491
112200,123459
112204,123476
112175,123444
112221,123462
112210,123496
112196,123442
112216,123455
112186,123487
112214,123441
112210,123476
112192,123414
112223,123468
112184,123421
112224,123469
112238,123479
112189,123447
112226,123463
112193,123443
112220,123431
112190,123424
112160,123407
112172,123395
112092,123395
112048,123336
111963,123286
111847,123202
111691,123128
111575,123068
111517,123019
111383,122932
111312,122852
111171,122813
111083,122740
110964,122699
110884,122619
110793,122612
110753,122582
110670,122556
110647,122537
110669,122487
110647,122530
110607,122514
110605,122490
110626,122502
110615,122551
110632,122530
110625,122548
110656,122538
110697,122560
110723,122572
110741,122567
110778,122596
110771,122575
110828,122599
110828,122648
110853,122610
110910,122650
110899,122684
110930,122640
110962,122703
110971,122668
111024,122691
111017,122666
111058,122674
111048,122749
111057,122712
111072,122734
111116,122745
111109,122747
111162,122752
111147,122760
111167,122779
111185,122737
111226,122786
111192,122814
111252,122769
111286,122832
111285,122796
111323,122817
111309,122823
111390,122851
111379,122889
111394,122870
111393,122870
111439,122921
111431,122901
111460,122912
111428,122885
111452,122890
111455,122919
111443,122863
111471,122910
111398,122877
111436,122851
111366,122862
111380,122858
111420,122845
111413,122866
111371,122857
111384,122842
111392,122813
111388,122849
111389,122828
111388,122840
111379,122814
111379,122836
111349,122789
111406,122846
111344,122792
111385,122831
111376,122829
111393,122790
111395,122847
111362,122817
111406,122828
111361,122832
111390,122817
111377,122798
111425,122836
111371,122847
111401,122827
111422,122866
111402,122831
111480,122835
111432,122866
111449,122852
111513,122890
111441,122871
111499,122855
111514,122906
111496,122864
111538,122902
111500,122891
111551,122887
111573,122904
111570,122904
111540,122929
111575,122917
111608,122954
111612,122887
111622,122945
111606,122927
111661,122925
111627,122970
111647,122942
111646,122947
111679,122989
111666,122954
111720,122961
111673,122999
111699,122958
111724,122965
111725,122970
111743,122974
111764,122999
111738,123021
111782,122985
111777,123029
111759,122975
111796,123011
111773,123049
111797,122984
111821,123030
111814,122987
111819,123014
111818,123027
111860,123003
111844,123046
111846,123025
111850,123026
111833,123010
111869,123033
111863,123014
111856,123058
111843,123034
111895,123021
111868,123066
111862,123021
111905,123057
111866,123019
111915,123019
111877,123047
111895,123012
111910,123053
111895,123016
111908,123060
111893,123038
111906,123044
111898,123034
111916,123014
111947,123052
111935,123062
111931,123011
111936,123083
111935,123071
111943,123038
111995,123070
111957,123092
111961,123034
111996,123080
111945,123072
111985,123061
111971,123084
111984,123058
111977,123080
112010,123095
111989,123119
111980,123063
112019,123109
111996,123079
112022,123069
111995,123069
112012,123054
111994,123098
111989,123055
112053,123098
111997,123075
112027,123069
111994,123090
112051,123065
112031,123091
112030,123086
112029,123068
112033,123086
112012,123052
112043,123096
112035,123055
112089,123077
112020,123046
112066,123062
112047,123085
112068,123072
112080,123110
112052,123058
112120,123089
112046,123078
112088,123099
112104,123085
112114,123095
112088,123101
112112,123083
112113,123106
112082,123073
112133,123125
112105,123120
112103,123087
112131,123084
112118,123084
112105,123062
112124,123069
112107,123128
112116,123054
112178,123101
112101,123078
112109,123096
112131,123116
112146,123117
112119,123087
112142,123126
112132,123043
112188,123118
112148,123089
112165,123084
112164,123097
112157,123070
112182,123108
112157,123087
112213,123107
112161,123091
112156,123090
112216,123081
112192,123115
112201,123076
112189,123118
112188,123085
112138,123054
112185,123077
112120,123072
112064,122998
112027,122991
111891,122924
111775,122825
111632,122776
111500,122645
111396,122621
111256,122506
111164,122457
110990,122437
110873,122321
110768,122272
110685,122209
110638,122192
110564,122191
110544,122136
110536,122137
110537,122131
110506,122143
110522,122110
110553,122194
110558,122179
110618,122185
110617,122232
110634,122166
110700,122238
110726,122248
110764,122271
110819,122314
110841,122311
110898,122327
110877,122377
110943,122350
110970,122398
111018,122361
111046,122426
111054,122395
111133,122462
111081,122453
111147,122456
111154,122491
111215,122519
111179,122493
111257,122508
111219,122535
111258,122528
111228,122525
111288,122545
111268,122530
111259,122507
111321,122521
111310,122581
111341,122544
111388,122602
111346,122562
111389,122591
111401,122646
111443,122604
111440,122643
111424,122584
111483,122630
111444,122652
111459,122656
111488,122636
111469,122633
111492,122624
111464,122623
111478,122655
111493,122621
111436,122597
111477,122615
111424,122639
111436,122566
111454,122602
111381,122580
111418,122552
111405,122613
111362,122543
111371,122546
111354,122521
111341,122508
111342,122549
111324,122538
111339,122484
111307,122551
111298,122505
111357,122547
111303,122522
111357,122536
111353,122552
111353,122514
111373,122574
111392,122573
111414,122541
111417,122596
111420,122573
111461,122588
111466,122595
111466,122571
111490,122615
111485,122591
111508,122625
111539,122611
111578,122682
111558,122622
111608,122647
111560,122662
111614,122646
111597,122696
111617,122659
111677,122695
111643,122706
111676,122671
111684,122729
111701,122718
111724,122715
111702,122686
111745,122739
111710,122724
111739,122702
111767,122743
111736,122743
111766,122732
111765,122768
111750,122735
111820,122753
111775,122788
111800,122733
111812,122794
111795,122741
111825,122744
111819,122761
111854,122757
111820,122780
111855,122782
111833,122770
111870,122778
111828,122786
111835,122732
111860,122807
111857,122745
111829,122804
111840,122783
111843,122800
111830,122759
111885,122749
111852,122798
111854,122733
111874,122770
111890,122754
111858,122776
111886,122779
111864,122763
111873,122789
111882,122777
111899,122739
111878,122792
111868,122745
111903,122806
111864,122775
111900,122770
111896,122790
111895,122760
111914,122808
111887,122772
111944,122799
111931,122773
111916,122804
111919,122771
111919,122799
111931,122817
111899,122803
111930,122765
111945,122836
111920,122799
111954,122818
111911,122796
111953,122773
111925,122816
111927,122780
111969,122809
111922,122792
111937,122792
111939,122798
111913,122809
111918,122786
111967,122789
111950,122818
111964,122760
111958,122811
111943,122755
111959,122807
111992,122785
111952,122757
111996,122776
111957,122820
111952,122789
112005,122791
111950,122805
111969,122767
111987,122799
111955,122793
112001,122809
111992,122811
112006,122813
111975,122753
112034,122816
111955,122798
112015,122792
112005,122798
112010,122769
112011,122812
111986,122768
112033,122813
111978,122773
112028,122795
112021,122788
112022,122799
112047,122790
112040,122784
112071,122788
112036,122817
112026,122802
112046,122803
112048,122809
112037,122805
112047,122818
112049,122815
112026,122803
112050,122830
112086,122807
112017,122796
112058,122807
112058,122786
112005,122784
112025,122778
112008,122755
111971,122742
111875,122703
111829,122662
111732,122600
111585,122534
111496,122437
111366,122397
111313,122333
111204,122310
111119,122225
111014,122206
110895,122137
110855,122085
110794,122084
110720,122036
110717,122031
110692,122018
110641,122013
110645,122027
110635,121978
110675,122037
110654,121995
110672,122016
110674,122047
110716,122021
110727,122100
110728,122030
110802,122103
110764,122071
110796,122099
110816,122092
110857,122138
111971,122742
110861,122115
110869,122126
110863,122148
110892,122123
110908,122150
110887,122111
110910,122119
110862,122166
110888,122136
110936,122176
110906,122141
110930,122165
110918,122170
110956,122147
110985,122211
110951,122153
111005,122203
111030,122201
111044,122217
111072,122227
111084,122253
111097,122268
111144,122263
111212,122299
111177,122342
111237,122311
111293,122362
111242,122325
111302,122346
111306,122399
111314,122342
111337,122360
111298,122377
111333,122377
111311,122382
111349,122345
111313,122344
111287,122350
111297,122317
111327,122363
111274,122307
111290,122324
111252,122314
111279,122302
111258,122331
111247,122276
111286,122316
111201,122261
111218,122282
111227,122286
111217,122264
111223,122274
111242,122265
111237,122291
111208,122307
111216,122275
111252,122292
111254,122304
111295,122283
111280,122359
111306,122307
111344,122332
111297,122322
111356,122333
111350,122384
111358,122340
111392,122378
111384,122350
111415,122389
111444,122386
111418,122407
111420,122400
111451,122392
111476,122424
111469,122406
111514,122443
111471,122462
111515,122411
111537,122458
111501,122430
111544,122432
111526,122452
111575,122429
111551,122474
111549,122433
111568,122464
111560,122441
111603,122496
111623,122485
111633,122469
111642,122496
111604,122481
111630,122514
111625,122516
111684,122495
111648,122522
111647,122480
111661,122528
111679,122505
111659,122514
111692,122504
111696,122528
111700,122528
111712,122522
111703,122562
111702,122550
111705,122500
111736,122525
111728,122573
111758,122507
111748,122568
111724,122513
111766,122539
111731,122585
111759,122535
111782,122562
111769,122514
111762,122582
111757,122528
111793,122553
111762,122515
111771,122550
111777,122560
111811,122564
111817,122577
111774,122547
111822,122561
111786,122586
111807,122551
111804,122605
111794,122557
111816,122567
111796,122549
111827,122542
111793,122587
111786,122529
111844,122595
111820,122551
111856,122561
111814,122569
111835,122564
111848,122568
111845,122591
111810,122553
111871,122595
111852,122574
111851,122565
111862,122567
111835,122587
111841,122570
111891,122597
111859,122593
111878,122571
111894,122596
111877,122592
111865,122577
111881,122596
111892,122568
111893,122615
111882,122574
111937,122586
111875,122617
111901,122570
111925,122631
111905,122571
111922,122589
111893,122589
111929,122588
111891,122634
111919,122580
111952,122625
111939,122606
111935,122597
111912,122621
111932,122604
111956,122616
111941,122629
111912,122612
111981,122591
111927,122627
111937,122584
111978,122636
111911,122607
111961,122606
111953,122656
111942,122587
111950,122628
111936,122621
111960,122618
111937,122583
111983,122588
111951,122586
111978,122600
111958,122650
111978,122598
111999,122653
111981,122593
111993,122627
111974,122591
112006,122608
111983,122641
111996,122592
112005,122622
111977,122628
112022,122602
111995,122624
111986,122647
112001,122624
112003,122628
112006,122610
112016,122669
112006,122605
112028,122649
112006,122618
112039,122643
111985,122644
112036,122620
112039,122659
112013,122606
112019,122624
111991,122602
111997,122638
111982,122608
111970,122600
111939,122600
111903,122563
111756,122486
111660,122408
111574,122363
111377,122244
111286,122193
111139,122141
111023,122042
110864,121983
110708,121868
110677,121858
110515,121806
110500,121758
110433,121788
110390,121703
110375,121730
110359,121708
110388,121710
110356,121692
110381,121735
110335,121697
110322,121721
110401,121717
110371,121754
110408,121740
110493,121787
110466,121797
110545,121816
110577,121868
110614,121824
110673,121901
110700,121906
110747,121935
110811,121953
110846,121988
110919,122031
110913,122028
110979,122018
110987,122087
111045,122055
111099,122121
111084,122084
111172,122131
111144,122156
111163,122103
111191,122172
111186,122172
111199,122168
111235,122170
111238,122186
111282,122178
111280,122199
111284,122209
111330,122227
111315,122259
111327,122197
111386,122278
111343,122257
111407,122263
111397,122291
111421,122238
111437,122288
111422,122265
111476,122312
111436,122308
111480,122292
111499,122309
111474,122288
111491,122336
111489,122296
111459,122290
111496,122301
111474,122304
111489,122316
111440,122312
111433,122242
111457,122271
111407,122248
111417,122238
111403,122279
111376,122221
111387,122241
111339,122205
111376,122233
111356,122206
111347,122236
111333,122221
111344,122203
111359,122187
111398,122242
111363,122207
111419,122235
111411,122276
111439,122233
111422,122286
111444,122222
111492,122293
111468,122251
111457,122288
111485,122292
111521,122311
111533,122302
111548,122292
111550,122303
111533,122314
111572,122352
111551,122315
111604,122303
111582,122325
111582,122297
111600,122365
111566,122312
111608,122327
111587,122339
111618,122317
111609,122351
111578,122314
111669,122358
111618,122333
111614,122358
111674,122354
111640,122348
111674,122345
111662,122369
111628,122337
111696,122363
111680,122364
111651,122343
111702,122374
111684,122383
111692,122371
111707,122396
111678,122356
111727,122393
111688,122391
111721,122373
111684,122376
111715,122375
111707,122395
111751,122377
111690,122405
111739,122363
111716,122406
111732,122368
111722,122410
111737,122371
111731,122393
111741,122371
111722,122407
111777,122371
111736,122449
111723,122366
111757,122403
111743,122394
111749,122384
111731,122388
111785,122405
111701,122384
111742,122367
111746,122410
111749,122374
111747,122370
111726,122383
111750,122359
111728,122414
111737,122356
111782,122415
111749,122362
111765,122368
111751,122403
111778,122389
111750,122404
111801,122369
111769,122400
111786,122383
111778,122403
111786,122385
111829,122433
111782,122370
111814,122433
111784,122392
111832,122399
111797,122440
111787,122352
111841,122446
111814,122396
111855,122416
111828,122408
111805,122391
111859,122442
111857,122405
111825,122441
111865,122402
111863,122455
111852,122390
111839,122449
111848,122392
111848,122423
111873,122394
111844,122420
111846,122404
111875,122413
111840,122422
111856,122403
111875,122443
111888,122443
111859,122413
111865,122410
111897,122412
111881,122470
111875,122421
111926,122438
111883,122437
111916,122412
111892,122480
111920,122433
111923,122467
111893,122437
111945,122447
111929,122461
111946,122440
111929,122468
111945,122464
111947,122448
111939,122474
111947,122482
111953,122425
111943,122488
111926,122451
111983,122475
111922,122503
111951,122460
111947,122491
111936,122451
111952,122483
111967,122497
111972,122437
111962,122477
111945,122447
111962,122466
111958,122475
111981,122427
111978,122442
111947,122452
111985,122459
111946,122464
111985,122463
111975,122442
111965,122459
111926,122434
112004,122485
111992,122451
112002,122441
111947,122452
111993,122434
111992,122444
111996,122438
111988,122461
112023,122464
111984,122436
111988,122445
111964,122422
111993,122451
111948,122426
111960,122418
111903,122415
111940,122426
111854,122375
111802,122343
111710,122251
111600,122178
111451,122111
111312,122045
111199,122000
111109,121957
111035,121890
110924,121804
110856,121783
110752,121778
110742,121715
110713,121741
110670,121676
110709,121711
110674,121736
110677,121733
110718,121768
110706,121730
110742,121761
110750,121756
110819,121799
110813,121827
110839,121816
110887,121858
110925,121864
110976,121886
110972,121940
111043,121921
111034,121939
111107,121978
111141,121992
111146,121974
111186,121993
111178,122028
111254,122017
111248,122056
111241,122031
111302,122073
111300,122064
111307,122069
111311,122088
111340,122076
111324,122097
111366,122064
111430,122151
111380,122103
111424,122133
111407,122119
111452,122122
111463,122185
111463,122140
111510,122170
111523,122151
111519,122198
111554,122182
111547,122215
111570,122217
111563,122179
111552,122218
111558,122221
111573,122182
111604,122242
111571,122209
111588,122191
111588,122231
111594,122180
111592,122208
111558,122179
111569,122168
111529,122191
111534,122146
111520,122187
111494,122124
111501,122121
111449,122125
111455,122122
111404,122112
111416,122097
111439,122104
111404,122121
111421,122081
111454,122145
111397,122107
111440,122082
111415,122114
111443,122097
111459,122139
111435,122089
111498,122114
111447,122152
111479,122146
111491,122145
111506,122151
111516,122144
111510,122168
111523,122161
111533,122182
111514,122140
111589,122180
111551,122181
111584,122164
111573,122199
111583,122196
111632,122229
111604,122178
111637,122229
111606,122203
111642,122223
111615,122231
111613,122231
111660,122235
111626,122208
111643,122210
111662,122261
111649,122200
111670,122239
111642,122217
111659,122230
111646,122264
111663,122221
111696,122271
111680,122203
111679,122261
111662,122238
111712,122254
111694,122228
111698,122244
111709,122271
111699,122266
111725,122233
111682,122252
111703,122276
111684,122235
111767,122253
111721,122274
111700,122232
111737,122283
111702,122229
111747,122264
111730,122282
111743,122234
111749,122290
111734,122258
111759,122283
111748,122279
111728,122269
111733,122289
111723,122249
111755,122306
111761,122249
111767,122261
111754,122259
111740,122275
111754,122263
111772,122301
111740,122237
111751,122282
111739,122263
111782,122245
111772,122293
111794,122258
111765,122227
111792,122264
111796,122263
111814,122287
111756,122237
111810,122266
111789,122307
111831,122255
111797,122292
111787,122250
111838,122291
111791,122303
111821,122272
111823,122302
111797,122249
111821,122292
111834,122296
111815,122288
111859,122305
111849,122307
111825,122264
111850,122299
111832,122293
111870,122292
111857,122350
111852,122274
111870,122317
111842,122318
111846,122294
111873,122343
111843,122292
111863,122310
111866,122300
111863,122323
111886,122286
111871,122294
111879,122318
111863,122302
111905,122312
111874,122275
111890,122301
111867,122306
111936,122334
111916,122345
111915,122337
111865,122308
111919,122287
111907,122342
111876,122299
111914,122318
111919,122321
111909,122318
111948,122320
111905,122284
111938,122336
111888,122312
111936,122296
111912,122355
111911,122283
111945,122337
111912,122310
111955,122318
111928,122332
111962,122316
111913,122346
111925,122309
111961,122353
111949,122332
111963,122332
111965,122334
111938,122339
111947,122351
111982,122326
111978,122360
111977,122299
111980,122344
111966,122331
112005,122337
111982,122343
111983,122306
112030,122362
111982,122337
112009,122360
112016,122389
112004,122356
111998,122382
112039,122353
112041,122361
112024,122374
112043,122381
112007,122362
112026,122373
112044,122367
112034,122389
112006,122370
112018,122351
112021,122399
112003,122350
112034,122350
111986,122364
111964,122321
111977,122329
111933,122292
111814,122274
111745,122187
111567,122083
111424,121993
111290,121910
111163,121875
110968,121721
110803,121681
110620,121542
110571,121540
110426,121490
110380,121459
110346,121456
110289,121376
110268,121392
110250,121400
110233,121413
110237,121400
110207,121397
110234,121417
110290,121424
110291,121452
110306,121429
110348,121469
110344,121462
110442,121482
110423,121524
110471,121502
110549,121580
110535,121558
110602,121573
110615,121605
110664,121621
110713,121648
110740,121659
110738,121700
110780,121702
110837,121706
110922,121773
110911,121746
110965,121803
110966,121759
111021,121806
111034,121850
111078,121825
111081,121873
111072,121837
111136,121881
111119,121884
111163,121860
111168,121888
111160,121879
111208,121906
111218,121958
111215,121911
111277,121953
111249,121922
111291,121945
111304,121966
111325,121955
111342,122020
111330,121962
111378,122012
111370,121990
111407,122016
111374,121984
111402,121992
111398,122029
111388,122022
111385,121994
111387,121972
111373,122004
111312,121957
111341,121978
111274,121966
111295,121926
111278,121936
111225,121885
111267,121926
111197,121913
111205,121877
111192,121904
111171,121859
111174,121902
111202,121856
111186,121859
111201,121877
111178,121882
111183,121875
111213,121876
111193,121900
111202,121884
111254,121880
111226,121904
111252,121895
111267,121926
111255,121907
111321,121938
111286,121973
111303,121929
111313,121973
111320,121928
111364,121967
111330,121980
111374,121976
111349,121980
111379,121957
111412,122023
111409,121980
111438,122007
111401,121977
111478,121997
111428,122030
111445,122044
111459,122011
111472,122024
111468,122030
111518,122012
111506,122071
111531,122041
111559,122078
111517,122043
111523,122058
111547,122067
111528,122077
111540,122064
111564,122102
111566,122044
111578,122079
111549,122072
111591,122056
111559,122091
111602,122065
111592,122110
111596,122047
111616,122114
111608,122092
111636,122089
111622,122097
111619,122098
111628,122081
111601,122078
111650,122141
111618,122089
111641,122084
111626,122113
111635,122058
111647,122135
111643,122096
111674,122106
111640,122136
111656,122072
111685,122129
111671,122106
111657,122119
111672,122112
111645,122128
111681,122123
111675,122125
111688,122078
111658,122137
111655,122079
111687,122146
111698,122117
111695,122117
111677,122122
111669,122106
111699,122125
111669,122139
111700,122097
111689,122129
111706,122135
111712,122111
111712,122128
111713,122110
111761,122154
111680,122104
111711,122130
111711,122135
111735,122118
111711,122149
111700,122101
111764,122165
111719,122137
111756,122120
111732,122140
111756,122123
111749,122158
111760,122136
111742,122139
111741,122133
111769,122155
111738,122141
111768,122127
111784,122138
111749,122143
111789,122145
111752,122145
111792,122160
111765,122136
111779,122139
111777,122136
111788,122144
111794,122169
111795,122150
111794,122167
111774,122135
111808,122150
111805,122174
111786,122145
111815,122157
111804,122159
111806,122161
111810,122158
111813,122168
111786,122169
111809,122154
111816,122144
111788,122161
111824,122174
111808,122131
111817,122169
111807,122159
111807,122154
111817,122179
111780,122158
111867,122179
111805,122157
111825,122144
111804,122180
111828,122130
111814,122185
111839,122130
111846,122178
111811,122129
111832,122146
111803,122174
111861,122142
111820,122143
111842,122154
111842,122175
111819,122157
111850,122156
111843,122194
111825,122139
111877,122175
111830,122186
111840,122139
111856,122195
111837,122140
111865,122158
111845,122162
111901,122158
111849,122181
111847,122141
111886,122174
111842,122153
111872,122174
111909,122198
111883,122148
111871,122173
111897,122167
111875,122186
111912,122165
111870,122154
111902,122164
111893,122158
111912,122172
111850,122163
111833,122128
111822,122154
111750,122039
111679,122041
111502,121967
111366,121861
111247,121783
111077,121674
110937,121605
110784,121507
110586,121442
110508,121353
110396,121385
110326,121270
110310,121303
110215,121274
110224,121248
110173,121261
110184,121239
110158,121273
110212,121270
110178,121264
110222,121294
110272,121271
110310,121332
110333,121323
110361,121361
110356,121342
110465,121391
110449,121432
110502,121394
110564,121483
110568,121435
110616,121518
110615,121502
110705,121522
110677,121572
110747,121526
110800,121586
110790,121584
110828,121602
110882,121645
110899,121607
110889,121650
110939,121614
110950,121664
110936,121687
111002,121695
110981,121715
110969,121667
111034,121718
110997,121660
111043,121713
111022,121723
111057,121691
111073,121758
111094,121724
111098,121766
111131,121747
111173,121808
111173,121790
111231,121808
111200,121807
111228,121812
111248,121860
111251,121797
111288,121854
111274,121794
111284,121852
111252,121800
111280,121816
111267,121821
111250,121831
111224,121795
111197,121818
111200,121773
111174,121760
111156,121781
111120,121720
111104,121746
111048,121707
111071,121687
111008,121705
110962,121624
111019,121697
110904,121638
110943,121619
110916,121647
110937,121597
110910,121652
110929,121607
110963,121638
111004,121674
110966,121653
111026,121680
111029,121695
111066,121720
111048,121693
111126,121733
111102,121711
111153,121742
111154,121765
111191,121749
111208,121808
111196,121765
111268,121786
111235,121833
111246,121798
111279,121829
111258,121822
111294,121834
111283,121836
111306,121819
111341,121857
111319,121821
111369,121880
111338,121854
111383,121877
111363,121889
111399,121892
111391,121898
111454,121869
111427,121904
111405,121902
111465,121896
111444,121946
111493,121925
111480,121938
111452,121914
111509,121913
111504,121948
111501,121915
111529,121973
111494,121931
111519,121975
111501,121936
111553,121951
111522,121964
111538,121928
111548,121983
111510,121929
111558,121964
111556,121962
111555,121945
111574,121945
111571,121963
111600,121964
111577,121980
111587,122000
111562,121955
111606,121952
111579,121995
111599,121942
111610,122017
111577,121958
111599,121981
111601,121994
111612,121967
111619,122001
111595,121957
111597,121979
111610,122006
111619,121987
111622,122013
111591,121996
111646,121975
111601,122014
111625,121953
111647,122025
111634,121991
111640,121971
111669,122000
111642,122028
111656,121963
111664,122016
111623,121994
111676,121985
111651,122017
111653,121994
111680,122010
111677,121998
111707,122020
111668,122039
111659,121981
111700,122036
111688,122052
111715,122025
111690,122055
111726,121989
111700,122063
111714,122017
111754,122048
111699,122031
111740,122048
111750,122043
111742,122068
111763,122069
111729,122026
111783,122060
111749,122057
111779,122089
111752,122042
111752,122055
111748,122063
111767,122035
111749,122075
111763,122055
111806,122056
111756,122090
111758,122042
111801,122086
111763,122035
111774,122062
111760,122049
111778,122054
111768,122069
111772,122037
111819,122059
111767,122033
111787,122073
111781,122066
111808,122054
111800,122038
111805,122071
111771,122053
111814,122082
111806,122071
111808,122034
111803,122087
111817,122052
111845,122054
111833,122073
111812,122076
111843,122100
111819,122096
111851,122070
111845,122092
111846,122044
111852,122106
111836,122089
111876,122085
111864,122118
111874,122068
111858,122119
111867,122100
111866,122102
111889,122094
111885,122090
111872,122098
111867,122061
111886,122093
111798,122083
111823,122037
111745,122059
111654,121955
111577,121928
111396,121824
111301,121728
111156,121704
110977,121568
110899,121544
110698,121418
110590,121354
110464,121311
110397,121253
110299,121243
110256,121201
110230,121192
110171,121175
110141,121163
110171,121156
110155,121179
110146,121124
110185,121179
110170,121197
110232,121221
110269,121242
110324,121225
110377,121305
110420,121321
110531,121362
110555,121404
110616,121425
110723,121423
110766,121520
110814,121493
110876,121532
110891,121590
110958,121573
110993,121639
111037,121607
111060,121665
111074,121615
111157,121669
111141,121708
111166,121720
111157,121708
111171,121722
111214,121723
111252,121732
111277,121745
111247,121741
111291,121725
111312,121775
111314,121725
111339,121791
111333,121759
111383,121790
111333,121791
111394,121757
111396,121828
111373,121758
111406,121834
111387,121804
111438,121792
111417,121816
111417,121848
111422,121799
111434,121831
111391,121805
111443,121810
111429,121821
111406,121831
111406,121777
111455,121819
111381,121802
111401,121767
111411,121811
111384,121776
111393,121786
111357,121777
111373,121751
111360,121754
111338,121729
111311,121716
111265,121715
111288,121677
111271,121731
111237,121689
111269,121711
111226,121699
111263,121684
111245,121729
111261,121677
111287,121760
111277,121737
111319,121720
111346,121765
111348,121786
111357,121744
111352,121774
111382,121746
111381,121796
111428,121790
111422,121776
111429,121819
111395,121786
111449,121821
111442,121825
111468,121790
111468,121840
111440,121775
111517,121824
111469,121837
111508,121834
111485,121836
111495,121815
111510,121843
111510,121826
111524,121845
111513,121832
111503,121827
111523,121816
111567,121837
111506,121863
111543,121840
111592,121868
111521,121841
111566,121837
111562,121874
111578,121833
111576,121880
111565,121836
111615,121862
111604,121867
111617,121875
111617,121882
111591,121887
111636,121860
111583,121919
111606,121846
111650,121905
111616,121872
111650,121898
111629,121881
111667,121888
111655,121920
111638,121907
111639,121872
111668,121909
111634,121897
111643,121914
111664,121887
111630,121919
111643,121919
111633,121869
111684,121915
111646,121892
111669,121879
111643,121900
111667,121881
111652,121903
111659,121893
111703,121929
111657,121875
111686,121893
111670,121913
111689,121886
111680,121894
111706,121905
111688,121912
111705,121920
111674,121894
111720,121918
111730,121917
111679,121901
111711,121928
111726,121914
111698,121919
111728,121949
111720,121911
111697,121910
111721,121927
111742,121893
111710,121899
111743,121928
111717,121920
111759,121952
111738,121913
111736,121950
111777,121944
111732,121934
111775,121930
111752,121925
111752,121958
111781,121941
111778,121947
111771,121938
111831,121971
111789,121945
111768,121977
111790,121937
111807,121980
111790,121960
111805,121982
111777,121941
111803,121994
111803,121934
111833,121974
111800,121958
111818,121947
111797,121969
111818,121940
111823,121982
111812,121941
111853,121965
111798,121948
111817,121948
111821,121978
111858,121946
111854,121977
111876,121965
111862,121985
111841,121972
111870,121965
111870,121940
111830,121976
111856,121946
111841,121983
111825,121971
111897,121970
111837,121998
111854,121960
111892,122014
111862,121959
111891,121976
111853,121997
111874,121988
111895,122003
111890,121996
111907,121969
111891,122005
111877,121983
111928,122016
111905,121993
111933,121974
111898,122007
111947,122011
111925,121981
111954,122003
111914,122012
111983,122009
111923,122027
111932,121943
111953,122021
111966,122019
111931,121970
111943,122006
111947,122052
111942,121988
111956,122004
111912,121982
111936,121971
111902,122009
111864,121951
111909,121983
111815,121903
111784,121881
111663,121846
111518,121754
111390,121656
111252,121611
111119,121535
111044,121502
110936,121437
110851,121352
110786,121347
110646,121313
110621,121250
110587,121267
110559,121219
110531,121281
110512,121201
110552,121265
110523,121245
110565,121232
110551,121252
110611,121250
110614,121319
110660,121313
110668,121335
110738,121356
110774,121355
110790,121432
110818,121379
110889,121448
110917,121467
110942,121448
111042,121494
111040,121523
111041,121485
111112,121561
111093,121568
111120,121577
111143,121582
111177,121576
111175,121602
111172,121569
111215,121606
111203,121604
111198,121587
111237,121587
111222,121623
111204,121577
111249,121623
111232,121612
111254,121613
111247,121646
111300,121615
111293,121651
111290,121595
111341,121643
111362,121670
111346,121672
111342,121681
111378,121707
111417,121702
111421,121696
111434,121708
111409,121714
111438,121704
111444,121754
111430,121693
111477,121734
111430,121734
111461,121714
111472,121738
111458,121702
111462,121730
111447,121721
111467,121715
111470,121737
111472,121691
111449,121696
111450,121737
111431,121713
111442,121706
111449,121682
111427,121725
111409,121662
111431,121703
111375,121676
111415,121678
111390,121696
111382,121654
111378,121692
111365,121660
111410,121677
111390,121675
111436,121663
111428,121679
111443,121695
111437,121718
111422,121652
111437,121692
111440,121689
111468,121681
111441,121747
111445,121672
111495,121726
111488,121705
111492,121728
111485,121718
111501,121695
111524,121723
111524,121708
111541,121747
111525,121690
111570,121724
111551,121766
111536,121741
111588,121776
111538,121747
111586,121740
111549,121769
111599,121747
111596,121789
111572,121736
111611,121777
111568,121795
111603,121781
111625,121816
111610,121794
111616,121811
111621,121795
111645,121789
111640,121816
111609,121797
111644,121777
111621,121824
111624,121788
111678,121815
111629,121800
111635,121788
111668,121816
111652,121777
111667,121826
111640,121793
111681,121799
111668,121818
111665,121778
111680,121817
111687,121820
111674,121838
111658,121780
111661,121825
111658,121793
111681,121830
111661,121841
111693,121798
111713,121805
111686,121841
111676,121824
111670,121802
111704,121847
111662,121812
111707,121819
111733,121820
111710,121825
111683,121865
111705,121811
111741,121834
111700,121836
111735,121805
111726,121881
111739,121847
111748,121859
111732,121819
111777,121851
111712,121848
111757,121846
111731,121870
111769,121846
111755,121871
111768,121849
111763,121873
111768,121858
111755,121871
111779,121877
111845,121863
111778,121892
111776,121850
111821,121892
111760,121887
111807,121900
111806,121910
111803,121855
111822,121890
111788,121872
111847,121879
111804,121904
111835,121877
111835,121877
111831,121891
111806,121897
111824,121913
111828,121889
111853,121890
111808,121894
111841,121876
111822,121905
111859,121876
111862,121894
111871,121911
111835,121911
111860,121883
111885,121924
111855,121879
111877,121890
111871,121896
111869,121885
111871,121909
111905,121921
111882,121928
111882,121880
111895,121944
111881,121889
111928,121940
111872,121929
111893,121900
111881,121930
111904,121902
111888,121965
111884,121914
111911,121968
111923,121913
111922,121932
111911,121933
111914,121939
111916,121928
111909,121948
111910,121917
111907,121973
111880,121914
111945,121926
111913,121975
111885,121909
111945,121984
111900,121920
111936,121914
111925,121940
111936,121928
111947,121978
111927,121936
111943,121973
111969,121943
111949,121948
111911,121979
111922,121911
111948,121955
111942,121947
111910,121950
111973,121950
111952,121961
111943,121905
111978,121963
111949,121955
111964,121915
111968,121955
111960,121918
111964,121958
111975,121930
111951,121935
111994,121963
111983,121971
111961,121946
111983,121925
111972,121962
112004,121922
112012,121981
111992,121947
112040,121959
112001,121954
112038,121958
112019,121966
112007,121991
112011,121942
112025,121962
111949,121948
111961,121916
111917,121916
111937,121924
111809,121845
111695,121750
111554,121706
111375,121587
111256,121516
111091,121449
111002,121349
110847,121320
110724,121242
110669,121228
110560,121166
110541,121159
110481,121149
110480,121137
110484,121133
110493,121120
110463,121135
110512,121168
110498,121180
110531,121150
110614,121228
110563,121217
110657,121237
110678,121289
110722,121247
110760,121337
110798,121330
110892,121384
110914,121418
110953,121387
111013,121431
111031,121427
111074,121487
111126,121506
111117,121540
111172,121483
111245,121541
111191,121535
111247,121549
111233,121608
111292,121555
111275,121597
111339,121595
111341,121605
111348,121643
111336,121615
111378,121606
111377,121652
111406,121633
111410,121620
111422,121644
111453,121685
111425,121654
111445,121639
111451,121691
111478,121659
111485,121714
111450,121685
111518,121678
111494,121724
111509,121671
111546,121723
111524,121676
111552,121714
111531,121701
111531,121709
111508,121689
111547,121694
111533,121709
111533,121720
111516,121670
111538,121675
111501,121680
111490,121653
111459,121704
111439,121649
111457,121627
111387,121644
111380,121588
111390,121610
111314,121564
111314,121579
111295,121537
111283,121509
111276,121579
111269,121531
111291,121551
111247,121545
111290,121538
111250,121571
111264,121521
111327,121579
111323,121584
111303,121595
111330,121571
111365,121587
111356,121592
111420,121607
111397,121647
111420,121603
111421,121657
111424,121666
111483,121629
111449,121664
111480,121624
111521,121671
111495,121658
111523,121668
111511,121697
111566,121658
111555,121698
111535,121650
111579,121693
111548,121720
111589,121695
111577,121731
111619,121688
111576,121701
111635,121715
111616,121712
111585,121718
111624,121748
111633,121681
111638,121748
111589,121708
111656,121734
111615,121747
111643,121698
111650,121756
111617,121718
111644,121709
111619,121754
111663,121711
111669,121767
111656,121743
111656,121747
111682,121756
111669,121744
111661,121740
111675,121765
111665,121752
111671,121755
111701,121740
111659,121750
111682,121757
111700,121762
111658,121731
111695,121761
111682,121768
111709,121747
111669,121738
111702,121769
111695,121769
111702,121787
111698,121734
111697,121766
111728,121767
111677,121762
111721,121758
111689,121747
111691,121743
111674,121771
111708,121772
111714,121732
111731,121753
111686,121770
111714,121735
111726,121739
111719,121772
111709,121775
111706,121771
111734,121753
111717,121777
111686,121733
111751,121774
111715,121770
111737,121740
111720,121792
111732,121740
111741,121773
111724,121770
111760,121767
111743,121800
111739,121756
111782,121786
111758,121786
111744,121769
111765,121789
111766,121758
111769,121804
111739,121773
111782,121817
111734,121800
111779,121783
111794,121783
111772,121780
111792,121795
111734,121795
111788,121768
111780,121816
111767,121773
111778,121805
111788,121796
111778,121805
111770,121786
111819,121783
111769,121785
111820,121781
111791,121831
111796,121765
111840,121838
111781,121804
111811,121805
111783,121810
111825,121802
111804,121848
111821,121793
111814,121795
111850,121799
111821,121813
111822,121827
111833,121832
111863,121774
111842,121839
111823,121809
111858,121810
111829,121814
111863,121770
111851,121837
111825,121801
111882,121825
111850,121829
111857,121787
111862,121840
111855,121809
111885,121821
111821,121802
111876,121814
111900,121806
111877,121835
111849,121825
111883,121793
111897,121846
111900,121795
111882,121821
111927,121850
111881,121837
111907,121787
111911,121866
111890,121826
111926,121847
111925,121852
111942,121824
111929,121867
111938,121849
111939,121828
111951,121848
111885,121859
111915,121821
111966,121866
111923,121824
111958,121849
111936,121870
111965,121837
111964,121880
111938,121820
111991,121862
111949,121854
111944,121844
111967,121843
111979,121866
111969,121855
111966,121857
111942,121879
111946,121844
111941,121848
111953,121840
111868,121821
111838,121783
111782,121774
111645,121630
111495,121594
111280,121445
111183,121397
110979,121324
110833,121185
110638,121149
110533,121043
110421,121022
110309,120971
110282,120950
110184,120888
110171,120894
110114,120869
110099,120868
110108,120857
110078,120880
110072,120825
110111,120874
110071,120923
110132,120883
110168,120938
110157,120890
110232,120946
110254,120978
110343,120989
110383,121028
110448,121030
110516,121079
110571,121121
110668,121161
110662,121210
110768,121213
110811,121249
110839,121243
110906,121287
110909,121315
110976,121332
110991,121350
110998,121375
111038,121344
111064,121362
111044,121393
111071,121368
111054,121396
111117,121395
111082,121400
111103,121408
111098,121404
111182,121413
111139,121430
111143,121386
111183,121458
111156,121417
111209,121432
111204,121472
111219,121441
111225,121476
111235,121439
111275,121485
111261,121483
111297,121490
111264,121468
111276,121467
111265,121455
111271,121463
111236,121489
111223,121425
111250,121461
111192,121426
111183,121423
111163,121438
111167,121390
111138,121434
111103,121365
111126,121384
111081,121380
111062,121343
111042,121359
111060,121352
111031,121336
111004,121302
110984,121329
110951,121287
110980,121299
110936,121300
110978,121278
110956,121289
110959,121288
110993,121312
110973,121339
110996,121255
111034,121340
111000,121336
111049,121337
111066,121360
111068,121365
111114,121362
111145,121405
111168,121391
111214,121419
111203,121453
111236,121408
111276,121432
111253,121449
111275,121444
111312,121484
111313,121463
111344,121508
111320,121490
111381,121510
111342,121517
111362,121498
111391,121501
111356,121512
111404,121525
111418,121500
111438,121529
111410,121526
111418,121501
111437,121542
111418,121487
111465,121534
111439,121564
111455,121506
111500,121579
111468,121545
111481,121547
111495,121574
111498,121555
111495,121580
111478,121553
111480,121577
111499,121553
111514,121583
111501,121555
111528,121601
111497,121567
111472,121558
111520,121552
111552,121599
111508,121547
111529,121561
111512,121594
111543,121560
111555,121588
111538,121589
111557,121580
111548,121586
111574,121594
111551,121598
111562,121612
111546,121595
111577,121593
111537,121612
111562,121568
111556,121623
111542,121571
111599,121622
111564,121593
111576,121588
111544,121583
111581,121574
111555,121597
111606,121595
111608,121595
111552,121596
111563,121611
111592,121589
111609,121619
111585,121586
111600,121598
111592,121608
111589,121599
111616,121618
111586,121565
111621,121606
111589,121607
111632,121601
111615,121624
111624,121585
111611,121596
111652,121646
111651,121593
111633,121623
111667,121659
111649,121613
111640,121631
111694,121629
111680,121654
111671,121633
111678,121652
111685,121622
111707,121658
111673,121668
111674,121627
111710,121673
111657,121660
111716,121678
111713,121659
111708,121679
111739,121673
111694,121669
111726,121661
111717,121689
111711,121638
111712,121672
111691,121673
111745,121656
111711,121699
111708,121647
111749,121680
111712,121655
111726,121678
111735,121658
111712,121663
111739,121647
111705,121659
111726,121691
111715,121655
111769,121647
111726,121670
111731,121653
111745,121678
111753,121661
111753,121672
111718,121673
111740,121642
111738,121706
111715,121654
111770,121675
111763,121685
111756,121668
111755,121668
111773,121696
111802,121670
111756,121662
111758,121692
111783,121678
111785,121678
111790,121677
111809,121687
111782,121693
111818,121681
111820,121701
111791,121668
111809,121704
111818,121702
111847,121695
111823,121716
111827,121689
111823,121665
111855,121713
111853,121713
111869,121742
111829,121686
111867,121716
111827,121718
111841,121709
111850,121719
111856,121703
111837,121739
111855,121687
111876,121750
111868,121707
111858,121691
111876,121730
111860,121715
111866,121692
111864,121707
111858,121730
111866,121686
111903,121727
111848,121737
111865,121697
111903,121747
111878,121703
111886,121713
111881,121724
111859,121694
111856,121721
111828,121662
111861,121671
111810,121676
111785,121661
111757,121615
111657,121570
111505,121479
111375,121402
111180,121319
111034,121211
110940,121166
110748,121046
110667,121043
110531,120981
110490,120925
110420,120929
110354,120869
110387,120890
110319,120882
110323,120863
110327,120877
110338,120856
110366,120878
110378,120912
110396,120957
110436,120944
110542,120985
110544,120997
110593,120998
110623,121058
110694,121052
110747,121111
110782,121145
110829,121150
110896,121208
110877,121206
110971,121215
110990,121238
111012,121243
111027,121244
111065,121301
111090,121327
111094,121283
111113,121307
111119,121302
111146,121323
111169,121348
111166,121334
111212,121317
111180,121355
111215,121342
111234,121379
111229,121357
111257,121385
111259,121347
111269,121396
111296,121377
111309,121379
111296,121396
111325,121412
111335,121431
111352,121443
111338,121435
111348,121422
111351,121463
111376,121406
111390,121474
111372,121463
111426,121431
111377,121472
111418,121448
111439,121491
111446,121471
111447,121468
111409,121465
111459,121483
111413,121461
111436,121484
111406,121443
111416,121463
111398,121454
111378,121437
111351,121415
111325,121408
111328,121400
111271,121398
111271,121405
111243,121377
111262,121336
111221,121357
111235,121326
111227,121348
111239,121334
111182,121349
111233,121356
111225,121367
111257,121334
111234,121351
111239,121337
111302,121391
111304,121403
111279,121386
111298,121377
111312,121417
111340,121395
111356,121447
111355,121408
111344,121418
111385,121436
111394,121459
111384,121433
111412,121452
111394,121490
111424,121447
111463,121455
111429,121485
111439,121450
111490,121517
111453,121458
111479,121485
111466,121510
111492,121475
111516,121522
111497,121474
111502,121504
111540,121530
111544,121498
111502,121499
111514,121483
111551,121501
111524,121572
111569,121531
111535,121526
111580,121548
111577,121567
111589,121532
111590,121556
111568,121560
111620,121540
111604,121570
111582,121526
111598,121581
111601,121555
111614,121558
111610,121542
111614,121542
111646,121562
111618,121579
111603,121538
111643,121583
111619,121559
111651,121579
111605,121549
111664,121568
111617,121592
111627,121567
111663,121580
111609,121581
111653,121563
111673,121566
111629,121564
111668,121573
111637,121580
111678,121555
111681,121588
111654,121553
111679,121607
111636,121604
111675,121555
111710,121608
111665,121558
111683,121585
111662,121589
111702,121598
111692,121608
111704,121601
111713,121588
111678,121617
111706,121605
111676,121590
111724,121577
111671,121600
111724,121593
111699,121627
111710,121572
111741,121610
111701,121589
111712,121577
111726,121606
111692,121587
111735,121599
111731,121609
111738,121599
111759,121623
111730,121621
111744,121617
111741,121617
111769,121589
111754,121647
111765,121603
111786,121657
111751,121590
111777,121628
111755,121627
111777,121599
111776,121657
111803,121633
111759,121627
111833,121624
111811,121658
111813,121630
111821,121632
111819,121630
111843,121642
111818,121662
111821,121636
111837,121667
111810,121612
111827,121648
111831,121654
111847,121620
111845,121664
111818,121625
111861,121635
111821,121661
111834,121649
111858,121662
111845,121640
111851,121626
111867,121657
111830,121673
111865,121662
111845,121634
111846,121658
111872,121640
111886,121672
111868,121652
111893,121649
111903,121663
111878,121643
111905,121676
111881,121674
111918,121648
111901,121674
111908,121661
111915,121692
111900,121650
111909,121648
111945,121662
111917,121688
111945,121656
111958,121707
111924,121655
111953,121694
111925,121691
111967,121692
111919,121703
111952,121668
111984,121670
111977,121664
111996,121700
111976,121690
111969,121717
111960,121689
112007,121684
111986,121730
111970,121680
112012,121724
111978,121735
111994,121696
111995,121711
111993,121694
111998,121714
111972,121707
112026,121693
111970,121736
111951,121672
111952,121700
111928,121659
111915,121650
111871,121618
111798,121586
111710,121521
111566,121448
111387,121338
111255,121258
111119,121238
111016,121134
110947,121114
110790,121075
110756,121003
110731,121009
110672,120958
110630,120969
110613,120970
110635,120962
110649,120971
110657,120955
110708,121011
110722,121018
110748,121039
110808,121033
110846,121104
110880,121096
110980,121181
110974,121149
111055,121189
111085,121218
111136,121257
111158,121257
111250,121277
111205,121298
111249,121291
111259,121315
111298,121349
111292,121343
111346,121336
111319,121350
111350,121318
111366,121363
111355,121369
111404,121339
111399,121379
111392,121364
111433,121395
111407,121398
111457,121398
111439,121420
111453,121369
111493,121433
111483,121406
111499,121432
111508,121435
111519,121447
111540,121445
111545,121438
111512,121404
111558,121445
111532,121456
111544,121423
111576,121473
111534,121437
111553,121463
111579,121497
111566,121444
111587,121463
111553,121452
111580,121472
111561,121451
111599,121483
111593,121460
111577,121456
111584,121446
111578,121476
111591,121476
111600,121481
111566,121431
111586,121449
111611,121481
111573,121498
111561,121433
111601,121460
111585,121478
111574,121431
111596,121488
111565,121475
111585,121456
111598,121449
111594,121449
111607,121472
111593,121472
111616,121473
111595,121479
111616,121454
111642,121501
111590,121481
111644,121484
111641,121503
111643,121472
111666,121531
111659,121485
111672,121526
111671,121501
111684,121517
111681,121496
111677,121502
111711,121528
111692,121539
111718,121518
111708,121548
111703,121516
111724,121550
111713,121555
111719,121530
111713,121550
111717,121518
111711,121571
111721,121518
111754,121541
111598,121449
111710,121525
111761,121549
111757,121561
111770,121540
111771,121580
111743,121534
111772,121588
111775,121555
111810,121558
111755,121569
111759,121536
111796,121563
111766,121599
111794,121554
111818,121585
111761,121554
111794,121562
111807,121552
111787,121582
111817,121571
111838,121589
111797,121565
111827,121570
111840,121592
111805,121556
111840,121592
111816,121599
111827,121570
111841,121605
111842,121572
111854,121585
111843,121583
111826,121582
111845,121591
111881,121599
111844,121602
111877,121622
111820,121603
111850,121589
111848,121609
111858,121554
111861,121608
111835,121595
111877,121592
111867,121601
111864,121571
111888,121601
111841,121615
111879,121590
111890,121616
111890,121587
111861,121594
111889,121580
111876,121601
111904,121606
111892,121609
111905,121591
111895,121628
111899,121581
111938,121631
111884,121584
111931,121592
111918,121633
111898,121579
111921,121624
111913,121605
111950,121611
111932,121631
111928,121628
111938,121623
111948,121640
111954,121615
111964,121641
111939,121612
112005,121640
111942,121653
111976,121634
111961,121649
111956,121629
111984,121644
111970,121605
111980,121657
112015,121617
112016,121660
111957,121650
111988,121658
112018,121674
111993,121629
111983,121641
112020,121640
111995,121653
112015,121660
111991,121670
112033,121646
112000,121672
111996,121628
112047,121651
112009,121658
112032,121653
112042,121691
112028,121627
112039,121672
112045,121648
112042,121671
112063,121671
112038,121656
112038,121672
112047,121675
112041,121645
112059,121689
112040,121661
112066,121667
112035,121693
112044,121644
112084,121684
112049,121660
112077,121677
112064,121693
112076,121658
112077,121677
112075,121667
112093,121685
112062,121686
112069,121667
112096,121674
112066,121671
112099,121675
112080,121708
112082,121658
112106,121698
112100,121667
112109,121683
112081,121664
112073,121677
112110,121668
112117,121680
112081,121700
112108,121675
112118,121687
112097,121693
112122,121715
112108,121711
112128,121678
112123,121712
112117,121649
112146,121701
112100,121700
112130,121664
112144,121693
112105,121652
112122,121679
112130,121694
112176,121676
112136,121685
112148,121678
112136,121657
112124,121689
112147,121703
112114,121684
112114,121653
112100,121688
112078,121632
112089,121642
112013,121617
112029,121594
111964,121610
111896,121518
111843,121530
111665,121429
111529,121333
111401,121293
111283,121208
111182,121158
111139,121139
111034,121112
111036,121096
111019,121057
110953,121031
110955,121034
110943,121021
110944,121033
110950,121042
110964,121056
110988,121049
110984,121062
111033,121120
111086,121103
111093,121147
111141,121150
111173,121158
111206,121186
111232,121224
111281,121216
111285,121229
111311,121272
111337,121246
111385,121265
111386,121286
111397,121281
111403,121299
111424,121291
111437,121308
111436,121314
111465,121312
111443,121326
111493,121337
111507,121335
111517,121342
111489,121349
111528,121343
111532,121352
111562,121363
111523,121358
111564,121389
111553,121384
111592,121379
111571,121380
111578,121387
111610,121390
111570,121384
111623,121429
111598,121389
111619,121397
111632,121389
111632,121390
111625,121413
111662,121399
111669,121418
111643,121422
111659,121438
111641,121456
111679,121410
111669,121446
111633,121403
111685,121439
111676,121428
111640,121435
111653,121435
111666,121421
111657,121414
111671,121422
111680,121416
111628,121413
111626,121400
111626,121400
111596,121398
111580,121374
111572,121348
111532,121363
111555,121368
111537,121354
111543,121353
111539,121360
111505,121334
111536,121362
111538,121341
111564,121367
111543,121337
111536,121346
111553,121346
111525,121383
111555,121348
111604,121378
111543,121358
111609,121384
111583,121406
111593,121367
111598,121397
111594,121349
111634,121392
111585,121415
111636,121378
111634,121417
111637,121393
111643,121410
111645,121430
111667,121389
111671,121447
111681,121410
111694,121464
111665,121402
111719,121466
111706,121445
111713,121440
111724,121407
111730,121460
111703,121422
111738,121443
111693,121471
111738,121444
111752,121460
111730,121433
111744,121446
111705,121436
111723,121447
111767,121478
111733,121454
111759,121449
111723,121447
111782,121467
111738,121493
111767,121448
111791,121496
111767,121449
111785,121476
111761,121480
111797,121498
111758,121473
111768,121493
111671,121447
111772,121475
111800,121430
111805,121506
111770,121456
111791,121464
111774,121472
111821,121467
111793,121492
111788,121455
111830,121487
111782,121485
111797,121486
111818,121501
111813,121467
111820,121489
111804,121440
111824,121480
111809,121472
111832,121518
111830,121503
111841,121491
111810,121475
111810,121486
111854,121491
111821,121498
111841,121524
111847,121489
111834,121485
111855,121496
111845,121511
111867,121480
111826,121486
111864,121491
111856,121510
111851,121486
111876,121534
111867,121486
111849,121503
111884,121507
111889,121508
111865,121506
111887,121515
111886,121488
111874,121519
111883,121513
111883,121523
111903,121507
111898,121511
111894,121507
111918,121518
111905,121533
111915,121541
111904,121514
111882,121520
111938,121542
111912,121511
111936,121531
111927,121522
111919,121525
111951,121535
111915,121516
111964,121548
111946,121526
111948,121541
111951,121557
111940,121554
111978,121546
111932,121541
111988,121546
111964,121536
111975,121572
111990,121559
111954,121557
111991,121547
111994,121552
111999,121553
111993,121550
111972,121557
112024,121561
111954,121556
112026,121578
112001,121563
111993,121560
112003,121567
112019,121560
112028,121543
112044,121565
112045,121578
112011,121557
112045,121583
112041,121558
112037,121578
112070,121586
112054,121591
112051,121584
112061,121594
112044,121584
112092,121574
112045,121580
112084,121611
112101,121572
112083,121583
112079,121592
112098,121627
112089,121588
112069,121596
112115,121593
112090,121601
112105,121609
112086,121608
112120,121603
112090,121622
112126,121619
112119,121617
112130,121607
112090,121630
112104,121611
112112,121630
112143,121621
112128,121632
112123,121646
112124,121625
112138,121633
112149,121626
112140,121653
112135,121652
112145,121641
112105,121619
112143,121627
112119,121606
112101,121600
112069,121557
112074,121583
112062,121571
111976,121552
111973,121544
111910,121513
111818,121457
111661,121353
111557,121283
111406,121222
111319,121163
111250,121141
111156,121101
111144,121063
111110,121040
111048,121023
111045,121031
111025,121031
111041,121037
111037,121049
111060,121023
111099,121069
111110,121095
111155,121100
111183,121127
111234,121098
111259,121171
111317,121179
111360,121182
111372,121241
111395,121209
111466,121265
111454,121283
111490,121254
111510,121296
111511,121258
111564,121322
111556,121334
111585,121312
111584,121341
111600,121330
111635,121329
111640,121342
111606,121375
111669,121369
111655,121335
111684,121391
111638,121378
111704,121378
111655,121414
111671,121371
111724,121408
111688,121406
111729,121403
111738,121426
111716,121380
111750,121440
111757,121424
111733,121449
111735,121424
111771,121441
111773,121433
111782,121438
111786,121448
111785,121445
111791,121451
111813,121467
111772,121453
111828,121448
111764,121454
111804,121480
111795,121451
111763,121454
111821,121454
111807,121460
111804,121463
111784,121464
111810,121458
111803,121457
111788,121446
111835,121455
111791,121429
111769,121429
111794,121445
111759,121413
111790,121405
111744,121417
111751,121427
111731,121380
111721,121392
111755,121411
111713,121401
111720,121391
111702,121388
111705,121390
111730,121407
111728,121395
111740,121408
111729,121391
111739,121425
111758,121404
111741,121415
111768,121430
111765,121433
111777,121429
111787,121421
111781,121413
111808,121439
111779,121437
111817,121432
111818,121446
111783,121432
111837,121447
111835,121456
111798,121442
111867,121448
111846,121437
111820,121473
111855,121475
111846,121458
111891,121464
111835,121448
111873,121468
111887,121444
111847,121459
111875,121457
111871,121444
111862,121434
111876,121456
111904,121484
111894,121469
111917,121453
111902,121468
111900,121470
111921,121461
111899,121467
111921,121489
111932,121477
111897,121466
111935,121491
111939,121494
111914,121496
111951,121500
111964,121505
111964,121490
111949,121481
111980,121513
111960,121484
111989,121503
111966,121507
111973,121507
111980,121507
111978,121489
112001,121497
111986,121511
112029,121520
111988,121527
112003,121531
112017,121499
111985,121541
112026,121543
112020,121533
112051,121557
112033,121542
112014,121533
112058,121556
112056,121538
112014,121532
112030,121544
112053,121537
112045,121538
112055,121539
112045,121535
112069,121565
112052,121541
112026,121552
112058,121552
112046,121564
112040,121552
112079,121539
112042,121564
112063,121558
112069,121563
112065,121561
112067,121539
112069,121571
112055,121560
112088,121579
112092,121595
112092,121532
112080,121576
112113,121580
112088,121596
112100,121562
112111,121566
112107,121583
112092,121578
112133,121577
112116,121589
112113,121583
112152,121614
112120,121609
112146,121585
112156,121631
112116,121580
112138,121596
112138,121611
112162,121572
112135,121619
112128,121569
112165,121606
112133,121614
112155,121600
112126,121571
112161,121585
112159,121587
112162,121609
112173,121608
112130,121600
112185,121618
112176,121597
112186,121615
112160,121600
112159,121592
112205,121611
112167,121607
112195,121645
112186,121610
112179,121600
112175,121630
112194,121623
112170,121628
112199,121643
112172,121601
112183,121625
112203,121613
112183,121611
112201,121595
112175,121612
112204,121608
112217,121608
112218,121606
112199,121602
112226,121616
112206,121627
112232,121626
112218,121616
112207,121612
112221,121616
112197,121616
112257,121636
112216,121649
112212,121629
112233,121634
112228,121644
112249,121632
112218,121634
112263,121634
112231,121635
112272,121651
112231,121649
112266,121640
112279,121661
112267,121653
112276,121645
112295,121677
112285,121666
112322,121675
112291,121670
112321,121667
112286,121675
112303,121679
112284,121681
112299,121659
112262,121690
112274,121655
112237,121659
112221,121626
112186,121621
112128,121575
112034,121557
111903,121455
111764,121365
111583,121249
111454,121211
111356,121144
111237,121110
111166,121039
111089,121041
111044,120984
110950,120940
110917,120950
110898,120914
110888,120919
110859,120909
110895,120940
110927,120919
110918,120959
110966,120981
111012,120980
111042,121011
111108,121015
111111,121036
111164,121097
111209,121091
111263,121118
111288,121135
111340,121140
111378,121175
111363,121164
111418,121224
111452,121182
111451,121217
111472,121237
111518,121244
111487,121236
111506,121251
111545,121256
111560,121266
111533,121286
111580,121293
111583,121286
111568,121291
111617,121318
111594,121309
111630,121310
111609,121305
111637,121338
111658,121306
111655,121338
111667,121329
111687,121340
111680,121354
111705,121347
111731,121358
111710,121360
111713,121378
111746,121349
111733,121386
111744,121399
111739,121372
111757,121400
111773,121382
111774,121376
111779,121381
111763,121384
111784,121383
111759,121387
111772,121394
111786,121374
111772,121386
111771,121394
111788,121387
111752,121380
111764,121374
111755,121381
111752,121369
111719,121380
111737,121370
111720,121366
111655,121356
111676,121353
111659,121317
111639,121305
111657,121333
111649,121296
111585,121302
111604,121275
111585,121271
111623,121302
111599,121272
111578,121293
111614,121284
111588,121281
111619,121282
111616,121280
111598,121304
111670,121287
111620,121293
111649,121318
111674,121299
111669,121296
111659,121320
111693,121323
111682,121337
111667,121323
111705,121341
111719,121336
111745,121338
111703,121341
111740,121364
111731,121328
111737,121347
111764,121342
111756,121371
111754,121353
111753,121357
111768,121368
111791,121365
111742,121363
111813,121383
111804,121380
111773,121403
111809,121366
111798,121374
111822,121370
111780,121373
111830,121392
111821,121383
111793,121370
111828,121385
111836,121372
111796,121374
111837,121394
111813,121368
111838,121381
111850,121388
111838,121366
111848,121357
111835,121359
111848,121368
111836,121373
111852,121380
111856,121408
111873,121376
111882,121373
111851,121403
111875,121386
111881,121412
111885,121412
111897,121399
111859,121407
111907,121433
111909,121410
111895,121428
111903,121445
111918,121417
111924,121456
111946,121436
111918,121443
111937,121409
111910,121432
111931,121444
111920,121449
111920,121429
111919,121450
111931,121426
111921,121438
111965,121450
111935,121438
111921,121402
111976,121454
111912,121468
111942,121439
111958,121444
111917,121411
111958,121444
111913,121458
111940,121432
111970,121471
111951,121427
111947,121469
111978,121460
111938,121482
111942,121419
111953,121446
111931,121452
111896,121439
111936,121454
111942,121429
111942,121442
111908,121432
111949,121438
111942,121435
111960,121470
111927,121432
111964,121435
111919,121469
111939,121425
111941,121468
111939,121450
111952,121437
111951,121444
111952,121407
111966,121470
111953,121392
111995,121451
111970,121475
111973,121467
111950,121463
111994,121463
111948,121458
111966,121459
111995,121471
112002,121445
112010,121448
112002,121485
111987,121431
112036,121464
112000,121460
112021,121444
112025,121487
112019,121470
112055,121491
112036,121502
112050,121480
112057,121477
112056,121528
112032,121483
112092,121491
112043,121525
112056,121482
112083,121518
112054,121487
112084,121525
112054,121497
112103,121497
112049,121522
112076,121498
112080,121529
112062,121497
112108,121523
112097,121520
112089,121544
112074,121480
112095,121497
112061,121515
112102,121520
112099,121544
112095,121492
112108,121531
112111,121514
112125,121510
112113,121536
112108,121495
112146,121530
112082,121490
112143,121529
112108,121542
112124,121516
112138,121511
112136,121535
112143,121516
112140,121536
112108,121520
112145,121545
112071,121500
112111,121507
112071,121519
112064,121472
112047,121485
111986,121403
111935,121379
111770,121333
111610,121195
111481,121141
111328,121075
111200,120999
111090,120913
110955,120887
110899,120831
110836,120804
110724,120754
110713,120727
110654,120727
110635,120702
110687,120743
110668,120755
110661,120744
110712,120742
110752,120783
110769,120798
110857,120802
110870,120853
110918,120866
110981,120904
111054,120932
111065,120965
111098,120925
111172,121005
111157,121004
111228,121004
111245,121039
111263,121026
111288,121071
111282,121039
111335,121063
111324,121092
111339,121067
111367,121090
111344,121093
111365,121069
111358,121078
111392,121115
111368,121097
111379,121083
111435,121099
111400,121129
111387,121090
111419,121146
111422,121118
111444,121131
111422,121154
111472,121118
111450,121173
111452,121148
111514,121180
111491,121191
111521,121178
111519,121187
111537,121188
111545,121177
111560,121173
111547,121222
111555,121168
111560,121220
111572,121152
111545,121197
111548,121175
111547,121213
111535,121166
111530,121157
111532,121183
111498,121133
111490,121146
111476,121141
111459,121101
111439,121113
111422,121084
111396,121101
111346,121074
111378,121099
111334,121090
111315,121021
111313,121060
111281,121018
111302,121048
111269,121005
111305,121011
111270,121053
111278,120992
111294,121035
111321,121068
111328,121032
111348,121050
111382,121071
111385,121080
111398,121081
111419,121077
111431,121121
111421,121105
111463,121127
111448,121134
111482,121117
111497,121146
111488,121117
111522,121159
111509,121168
111554,121136
111515,121190
111534,121179
111562,121183
111538,121175
111551,121180
111570,121159
111588,121208
111606,121188
111593,121193
111615,121215
111579,121189
111608,121177
111601,121214
111625,121172
111643,121235
111626,121204
111669,121207
111649,121240
111643,121214
111635,121234
111661,121204
111660,121227
111684,121208
111663,121234
111658,121202
111701,121233
111669,121258
111687,121238
111720,121257
111686,121209
111701,121249
111666,121227
111698,121264
111687,121254
111694,121220
111709,121252
111732,121234
111725,121278
111715,121256
111720,121241
111669,121233
111749,121274
111703,121278
111724,121223
111740,121292
111702,121243
111754,121257
111733,121287
111751,121246
111736,121298
111749,121244
111783,121275
111771,121271
111749,121268
111760,121296
111762,121259
111771,121256
111785,121297
111779,121259
111805,121300
111768,121297
111809,121289
111823,121308
111788,121265
111816,121323
111837,121306
111845,121297
111827,121341
111798,121268
111842,121320
111804,121283
111858,121303
111836,121283
111865,121336
111842,121313
111866,121293
111853,121340
111862,121301
111863,121363
111840,121313
111911,121324
111874,121362
111872,121339
111885,121343
111885,121343
111920,121333
111883,121347
111910,121370
111909,121372
111919,121351
111885,121355
111934,121368
111913,121354
111905,121336
111947,121370
111902,121346
111948,121375
111910,121358
111948,121374
111940,121364
111917,121364
111970,121368
111974,121355
111932,121363
111967,121375
111987,121364
111956,121376
111985,121405
111967,121366
111977,121378
111953,121371
111987,121398
111952,121379
112007,121380
111994,121412
111976,121358
112020,121423
111998,121421
112003,121392
112012,121403
112009,121383
112022,121407
112039,121405
112019,121410
112036,121402
112060,121408
112029,121419
112055,121400
112029,121428
112053,121401
112060,121448
112073,121397
112021,121411
112082,121422
112052,121413
112078,121410
112080,121462
112064,121404
112049,121421
112067,121405
112098,121447
112081,121435
112033,121441
112067,121408
112066,121435
112056,121399
112052,121432
112038,121411
112049,121390
112020,121410
111969,121344
112000,121364
111894,121348
111846,121260
111754,121242
111628,121125
111479,121095
111368,121005
111256,120982
111225,120934
111144,120914
111069,120883
111048,120879
111012,120831
110996,120839
110946,120786
110958,120803
110926,120834
110918,120768
110969,120816
110960,120791
110984,120804
110984,120832
110979,120843
111019,120846
111101,120909
111091,120900
111156,120905
111153,120954
111208,120939
111235,121003
111258,120969
111326,121007
111315,121001
111354,121033
111334,121045
111364,121007
111413,121078
111384,121048
111405,121040
111446,121082
111452,121069
111474,121098
111456,121079
111485,121090
111482,121119
111491,121075
111495,121126
111492,121075
111547,121126
111530,121118
111529,121113
111520,121138
111558,121122
111581,121144
111550,121115
111604,121129
111602,121151
111566,121161
111627,121166
111644,121182
111611,121186
111622,121165
111656,121183
111647,121210
111620,121164
111643,121185
111591,121155
111608,121157
111582,121163
111554,121123
111529,121117
111468,121060
111483,121113
111446,121082
111439,121067
111374,121041
111376,121020
111342,121066
111336,120990
111361,121029
111298,121031
111327,120990
111330,120998
111282,120991
111277,120972
111332,121003
111290,121015
111305,120951
111335,121030
111307,120981
111334,120994
111341,120997
111390,121027
111409,121055
111368,121035
111425,121019
111407,121075
111419,121027
111440,121083
111453,121035
111476,121056
111471,121096
111504,121049
111526,121118
111515,121103
111522,121096
111516,121116
111574,121101
111569,121128
111570,121124
111605,121120
111610,121162
111625,121147
111651,121152
111627,121181
111636,121137
111653,121187
111645,121136
111678,121187
111643,121161
111707,121171
111672,121203
111680,121175
111719,121215
111676,121190
111709,121207
111734,121174
111718,121211
111709,121174
111735,121188
111700,121233
111747,121206
111689,121196
111733,121226
111710,121200
111766,121221
111737,121236
111742,121191
111766,121228
111732,121195
111750,121216
111744,121237
111765,121206
111775,121199
111797,121228
111785,121250
111749,121215
111794,121205
111774,121248
111757,121197
111769,121229
111750,121213
111796,121201
111770,121240
111777,121201
111809,121246
111806,121228
111781,121220
111829,121227
111799,121238
111798,121229
111802,121241
111845,121248
111842,121208
111851,121245
111823,121249
111858,121230
111846,121268
111856,121229
111872,121261
111810,121239
111842,121272
111852,121273
111883,121257
111863,121287
111846,121228
111893,121283
111868,121259
111902,121300
111884,121266
111891,121271
111907,121272
111917,121256
111919,121306
111866,121296
111917,121272
111892,121303
111887,121263
111927,121284
111892,121291
111932,121262
111927,121328
111916,121254
111951,121319
111941,121285
111938,121282
111951,121295
111917,121288
111969,121288
111942,121329
111931,121264
111981,121307
111926,121305
111974,121281
111962,121320
111959,121280
111957,121313
111961,121277
111972,121321
111975,121296
111933,121296
111975,121297
111960,121322
111998,121340
111985,121299
111978,121321
112003,121323
111967,121289
112031,121322
111976,121345
112018,121301
112006,121363
111994,121291
111995,121349
111976,121294
112048,121346
112011,121326
112036,121322
112032,121319
112013,121335
112062,121329
112043,121328
112040,121334
112047,121343
112021,121336
112033,121338
112045,121328
112035,121364
112085,121345
112089,121372
112041,121334
112103,121350
112055,121395
112063,121326
112099,121383
112070,121338
112101,121364
112076,121359
112069,121397
112071,121333
112090,121386
112058,121377
112076,121356
112049,121358
112028,121310
112011,121360
111978,121280
111978,121309
111903,121258
111806,121204
111670,121154
111507,121011
111423,120994
111295,120939
111214,120887
111137,120837
111103,120820
111033,120789
110983,120783
110956,120728
110936,120745
110895,120720
110935,120734
110909,120746
110941,120705
110949,120776
110952,120752
110999,120794
110989,120786
111070,120796
111082,120801
111097,120803
111147,120852
111151,120852
111172,120889
111203,120893
111289,120918
111246,120923
111308,120923
111276,120957
111319,120964
111341,120983
111333,120934
111412,120982
111348,121004
111394,120983
111421,121020
111426,121013
111439,121019
111438,120982
111462,121021
111450,121046
111485,121039
111448,121049
111487,121020
111474,121067
111479,120998
111505,121075
111498,121042
111479,121044
111505,121055
111521,121067
111500,121061
111514,121044
111536,121067
111560,121036
111554,121060
111587,121077
111552,121104
111591,121074
111578,121109
111565,121064
111621,121112
111578,121107
111597,121090
111600,121123
111586,121077
111577,121110
111564,121099
111598,121091
111565,121101
111592,121074
111555,121071
111548,121064
111558,121073
111526,121054
111527,121067
111492,121010
111511,121008
111468,121046
111466,121002
111486,121033
111433,121005
111443,120990
111407,121004
111421,120973
111442,120999
111420,120981
111451,120998
111475,121003
111463,121006
111452,121029
111435,121005
111521,121028
111488,121027
111525,121043
111507,121049
111528,121052
111525,121046
111582,121063
111594,121094
111575,121060
111605,121088
111576,121114
111604,121053
111645,121111
111631,121089
111621,121104
111667,121110
111632,121100
111679,121103
111669,121128
111651,121094
111692,121142
111654,121125
111694,121112
111681,121145
111693,121113
111698,121148
111690,121108
111750,121151
111693,121112
111718,121154
111717,121165
111741,121141
111711,121154
111748,121166
111722,121156
111744,121159
111724,121165
111743,121142
111753,121188
111730,121125
111773,121153
111743,121181
111751,121133
111791,121176
111751,121154
111779,121179
111738,121159
111782,121158
111788,121151
111799,121176
111762,121194
111770,121156
111807,121179
111759,121138
111799,121166
111794,121167
111813,121203
111752,121180
111821,121179
111803,121206
111798,121166
111829,121180
111816,121194
111838,121172
111820,121206
111825,121218
111808,121196
111851,121196
111839,121195
111834,121180
111827,121194
111854,121205
111857,121182
111863,121190
111859,121194
111860,121219
111885,121212
111854,121206
111869,121219
111867,121221
111872,121210
111890,121231
111882,121217
111891,121244
111898,121206
111892,121218
111890,121224
111906,121225
111909,121239
111894,121225
111891,121231
111902,121207
111934,121242
111913,121240
111896,121245
111911,121219
111955,121251
111900,121220
111924,121238
111919,121232
111894,121256
111932,121257
111945,121247
111948,121206
111933,121245
111940,121220
111948,121254
111927,121281
111946,121234
111964,121287
111914,121230
111942,121239
111935,121265
111953,121232
111973,121265
111953,121241
111974,121241
111982,121236
111955,121254
111970,121261
111981,121286
111951,121265
112003,121274
111975,121247
112020,121238
111970,121298
111985,121232
112025,121294
112007,121248
112016,121276
112008,121254
112004,121291
112032,121275
112016,121269
112012,121265
111989,121273
112022,121269
112027,121249
112044,121263
112037,121261
112066,121278
112056,121305
112056,121269
112067,121297
112041,121262
112109,121294
112036,121321
112072,121286
112104,121316
112060,121282
112101,121325
112087,121306
112086,121327
112095,121328
112123,121325
112105,121322
112113,121356
112115,121289
112133,121334
112088,121321
112094,121280
112112,121308
112034,121275
112058,121270
112004,121281
111983,121228
111939,121208
111801,121131
111694,121076
111534,121009
111422,120914
111283,120889
111204,120803
111133,120774
111030,120692
111019,120702
110927,120685
110916,120676
110906,120656
110886,120656
110860,120636
110906,120684
110891,120644
110927,120695
110931,120694
110989,120726
111007,120717
111058,120753
111052,120731
111133,120816
111113,120814
111160,120800
111233,120852
111215,120832
111289,120871
111265,120892
111310,120871
111318,120921
111321,120892
111405,120938
111375,120919
111404,120917
111441,120942
111407,120967
111439,120953
111513,121019
111477,120980
111489,120991
111471,120982
111540,120971
111507,121028
111530,120997
111531,121027
111493,120996
111564,121017
111525,121015
111529,121010
111549,121040
111548,120979
111559,121017
111600,121042
111609,121033
111605,121013
111601,121041
111605,121046
111612,121052
111646,121052
111603,121072
111655,121043
111638,121066
111643,121038
111635,121067
111636,121031
111664,121040
111632,121052
111669,121034
111651,121073
111638,121044
111605,121049
111619,121032
111633,121042
111596,121014
111626,121030
111549,121053
111581,120988
111588,121015
111525,120985
111531,120982
111516,121000
111522,120965
111489,120994
111466,120928
111503,120971
111474,120987
111484,120954
111468,120964
111500,120985
111500,120988
111505,120964
111512,120969
111556,121000
111520,120985
111546,120976
111558,121015
111558,120992
111577,121023
111567,121012
111609,121002
111576,121061
111603,121014
111669,121063
111623,121043
111631,121054
111632,121041
111664,121087
111636,121046
111670,121084
111653,121078
111708,121063
111683,121077
111723,121088
111668,121058
111694,121051
111706,121116
111698,121055
111730,121095
111699,121092
111737,121061
111719,121103
111728,121086
111768,121120
111728,121099
111724,121125
111757,121104
111777,121119
111764,121156
111789,121096
111781,121143
111747,121090
111791,121130
111733,121140
111768,121101
111799,121157
111799,121090
111788,121100
111822,121142
111792,121123
111791,121151
111822,121149
111793,121153
111802,121102
111828,121154
111806,121132
111837,121137
111838,121169
111840,121147
111827,121167
111810,121130
111859,121156
111817,121162
111871,121123
111846,121199
111854,121140
111855,121153
111862,121165
111883,121142
111880,121173
111849,121138
111868,121180
111861,121166
111865,121172
111888,121145
111862,121179
111879,121145
111904,121182
111866,121169
111919,121143
111901,121180
111883,121137
111939,121169
111932,121152
111938,121187
111897,121165
111919,121171
111954,121170
111925,121207
111950,121174
111970,121195
111916,121169
111937,121191
111960,121214
111937,121182
111973,121220
111952,121179
111965,121208
111960,121228
111928,121191
111981,121204
111978,121190
111988,121201
112014,121213
111984,121231
111977,121190
112021,121247
111986,121210
112004,121215
112003,121220
112009,121188
112021,121234
111998,121210
112054,121238
112002,121233
112030,121197
112023,121258
112016,121205
112028,121222
112017,121231
112009,121188
112020,121215
112061,121224
112037,121243
112018,121194
112055,121205
112034,121222
112042,121218
112078,121261
112038,121210
112053,121250
112068,121240
112062,121239
112079,121235
112071,121218
112058,121213
112073,121220
112061,121251
112070,121247
112050,121222
112112,121237
112078,121239
112105,121219
112118,121270
112084,121250
112114,121258
112137,121239
112128,121253
112114,121239
112151,121247
112110,121277
112133,121231
112124,121253
112141,121264
112122,121251
112158,121250
112154,121276
112131,121241
112176,121267
112142,121264
112146,121250
112112,121277
112108,121219
112112,121217
112061,121235
112080,121187
112045,121221
112005,121170
112003,121166
111935,121122
111904,121129
111809,121081
111735,121008
111625,120941
111504,120902
111446,120851
111382,120843
111287,120786
111309,120799
111254,120778
111230,120721
111238,120787
111185,120742
111239,120761
111218,120792
111225,120758
111274,120787
111299,120816
111312,120775
111314,120816
111354,120834
111343,120831
111405,120842
111410,120875
111428,120875
111460,120931
111467,120905
111465,120917
111496,120906
111558,120931
111530,120908
111554,120953
111577,120961
111587,120967
111578,120972
111572,120944
111612,120966
111613,120986
111572,120973
111631,120967
111635,121003
111625,120967
111655,121007
111620,120991
111663,120986
111649,121037
111657,121017
111694,121041
111669,120999
111696,121017
111692,121005
111713,121042
111712,121018
111686,121036
111752,121055
111706,121048
111720,121067
111752,121046
111736,121069
111727,121029
111765,121062
111716,121051
111756,121045
111744,121064
111723,121034
111747,121057
111709,121043
111774,121047
111738,121045
111720,121046
111729,121044
111710,121025
111715,121038
111721,120996
111719,121037
111675,121008
111689,121025
111648,120974
111645,120970
111646,120969
111644,120996
111573,120981
111576,120937
111601,120974
111540,120930
111562,120926
111551,120926
111558,120951
111575,120943
111551,120931
111596,120954
111579,120981
111593,120958
111644,121000
111595,120980
111647,120982
111651,121012
111687,120998
111674,121042
111663,120997
111717,121055
111678,121000
111694,121044
111707,121027
111746,121039
111710,121043
111735,121063
111766,121052
111756,121079
111761,121038
111777,121085
111777,121076
111791,121066
111794,121097
111775,121056
111818,121104
111795,121101
111807,121081
111827,121098
111812,121090
111810,121117
111792,121074
111815,121102
111829,121058
111831,121121
111822,121079
111843,121101
111821,121089
111823,121086
111840,121122
111810,121088
111852,121070
111848,121123
111822,121076
111898,121123
111817,121103
111844,121088
111848,121102
111856,121082
111890,121129
111870,121103
111883,121115
111887,121128
111850,121105
111896,121132
111870,121103
111903,121102
111876,121132
111865,121092
111919,121140
111871,121125
111912,121141
111921,121120
111895,121126
111920,121121
111901,121125
111924,121131
111931,121142
111918,121143
111945,121135
111935,121146
111946,121127
111914,121143
111954,121151
111947,121142
111926,121143
111966,121160
111930,121135
111982,121161
111936,121146
111968,121168
111992,121154
111971,121157
111980,121171
111954,121150
111992,121182
111972,121166
112015,121162
111968,121187
111976,121168
112017,121199
112009,121167
112009,121200
111996,121154
112019,121197
112021,121219
112029,121160
112046,121204
112047,121198
112037,121178
112031,121203
112065,121188
112047,121223
112052,121162
112075,121237
112032,121199
112048,121204
112038,121206
112053,121186
112066,121237
112038,121168
112075,121237
112057,121190
112079,121235
112049,121216
112085,121203
112071,121215
112074,121220
112090,121199
112084,121225
112065,121228
112089,121211
112101,121240
112115,121215
112115,121217
112076,121224
112121,121227
112100,121255
112101,121216
112138,121258
112102,121203
112115,121231
112113,121211
112136,121246
112162,121243
112135,121257
112151,121252
112122,121251
112141,121222
112178,121246
112132,121264
112149,121205
112189,121248
112128,121226
112168,121227
112165,121284
112181,121234
112184,121258
112182,121247
112201,121268
112185,121265
112165,121242
112206,121283
112174,121250
112216,121260
112193,121291
112182,121249
112216,121268
112204,121283
112199,121266
112200,121277
112239,121275
112186,121256
112211,121284
112187,121255
112181,121254
112170,121259
112164,121233
112122,121241
112091,121204
112059,121179
111995,121129
111848,121079
111711,120978
111544,120903
111404,120826
111289,120769
111189,120734
111129,120658
111028,120659
110948,120561
110919,120565
110831,120525
110837,120536
110805,120525
110823,120530
110814,120520
110812,120529
110844,120557
110882,120573
110897,120554
110962,120615
110951,120642
111026,120649
111070,120686
111104,120652
111151,120708
111163,120763
111220,120728
111247,120783
111249,120725
111321,120809
111312,120804
111347,120843
111354,120850
111413,120815
111401,120870
111412,120818
111452,120884
111428,120871
111492,120881
111484,120885
111483,120890
111527,120930
111507,120926
111501,120883
111531,120939
111498,120911
111551,120921
111528,120924
111562,120939
111529,120919
111554,120910
111553,120944
111555,120926
111576,120963
111556,120940
111609,120951
111588,120981
111588,120937
111628,120980
111616,120959
111650,120975
111620,120979
111638,120948
111618,120984
111635,120971
111641,120978
111634,120953
111618,120979
111616,120950
111652,120962
111593,121002
111624,120930
111655,120973
111624,120938
111618,120933
111579,120939
111617,120933
111601,120971
111594,120896
111627,120960
111572,120964
111602,120938
111586,120939
111624,120948
111610,120957
111594,120935
111635,120976
111600,120955
111606,120944
111615,120964
111621,120919
111620,120966
111667,120971
111670,120985
111622,120976
111677,120965
111662,121016
111661,120960
111693,121002
111688,121019
111690,120990
111706,121022
111721,120987
111728,121027
111731,120986
111751,121026
111716,120993
111769,121039
111739,121016
111764,121020
111777,121058
111780,121019
111792,121051
111775,121035
111808,121020
111782,121070
111808,121045
111830,121043
111806,121058
111802,121055
111804,121031
111841,121059
111817,121071
111860,121051
111852,121092
111853,121063
111847,121080
111828,121052
111886,121063
111858,121100
111866,121049
111903,121110
111863,121081
111852,121070
111842,121061
111891,121093
111858,121064
111898,121060
111874,121086
111911,121061
111900,121118
111871,121086
111914,121077
111906,121055
111902,121091
111874,121070
111915,121072
111881,121109
111890,121061
111920,121107
111921,121096
111912,121099
111921,121074
111945,121092
111925,121112
111954,121110
111923,121129
111954,121081
111945,121145
111944,121057
111982,121137
111918,121111
111951,121109
111947,121128
111992,121090
111949,121130
111976,121134
111971,121123
111960,121137
111984,121131
112003,121133
111999,121139
111967,121115
111996,121139
111978,121139
111993,121125
112035,121143
111981,121158
111992,121103
112018,121167
112013,121129
112003,121121
111990,121129
112024,121134
112009,121153
112019,121164
112004,121122
112051,121183
112020,121168
112069,121149
112060,121140
112011,121176
112026,121135
112065,121144
112042,121183
112047,121138
112078,121170
112039,121143
112065,121153
112050,121182
112069,121130
112081,121178
112073,121181
112094,121193
112077,121167
112103,121169
112088,121198
112097,121153
112136,121196
112086,121167
112127,121184
112104,121202
112126,121178
112137,121206
112140,121196
112138,121199
112131,121213
112103,121187
112160,121195
112151,121200
112133,121223
112141,121165
112168,121216
112164,121206
112138,121179
112175,121215
112140,121223
112159,121184
112191,121242
112158,121186
112169,121218
112154,121252
112195,121202
112186,121249
112182,121206
112198,121242
112203,121224
112155,121222
112187,121228
112210,121234
112180,121247
112204,121211
112227,121233
112187,121216
112227,121252
112213,121246
112220,121226
112229,121244
112223,121243
112268,121244
112259,121259
112240,121223
112279,121275
112258,121248
112267,121240
112264,121251
112281,121234
112312,121286
112279,121293
112293,121256
112325,121280
112259,121245
112292,121288
112275,121271
112326,121272
112291,121253
112295,121291
112273,121269
112277,121238
112275,121275
112225,121228
112215,121219
112209,121185
112176,121213
112169,121190
112112,121197
112026,121115
111986,121099
111875,121060
111811,121004
111736,120982
111655,120899
111608,120899
111530,120839
111547,120869
111478,120882
111487,120823
111487,120865
111470,120832
111508,120838
111466,120847
111530,120861
111516,120873
111562,120886
111529,120893
111561,120853
111604,120925
111579,120898
111633,120917
111637,120936
111662,120928
111666,120985
111660,120940
111743,120977
111689,120992
111727,120977
111722,120992
111727,121003
111788,121029
111752,120984
111786,120980
111778,121001
111824,121026
111793,121049
111820,121046
111791,121013
111851,121037
111840,121062
111842,121006
111849,121046
111827,121047
111870,121054
111861,121057
111896,121032
111886,121045
111900,121065
111913,121044
111930,121106
111903,121043
111928,121064
111893,121067
111939,121062
111937,121096
111932,121058
111950,121085
111911,121087
111933,121064
111946,121085
111922,121063
111925,121091
111916,121079
111931,121068
111914,121050
111947,121062
111932,121066
111941,121055
111882,121082
111904,121020
111913,121084
111890,121037
111917,121048
111874,121007
111882,121018
111873,121062
111890,121001
111900,121057
111858,121007
111872,121029
111898,121027
111853,121027
111853,121007
111878,121031
111849,121042
111870,121020
111867,121028
111890,121011
111865,121040
111891,121041
111881,121022
111893,121035
111876,121061
111909,121028
111917,121061
111890,121025
111920,121050
111926,121040
111923,121052
111914,121040
111957,121055
111922,121085
111925,121037
111969,121086
111941,121055
111966,121090
111943,121086
111997,121047
111954,121102
111968,121057
112010,121088
111988,121087
111989,121059
111987,121083
112008,121076
112034,121086
112005,121079
111986,121077
112042,121084
112015,121068
112041,121088
112042,121090
112021,121082
112053,121090
112046,121075
112046,121106
112062,121083
112056,121087
112076,121120
112049,121093
112079,121084
112083,121089
112066,121094
112086,121094
112081,121125
112074,121088
112106,121127
112086,121122
112090,121124
112107,121114
112093,121091
112127,121100
112061,121136
112094,121097
112130,121134
112095,121102
112126,121092
112107,121127
112112,121151
112151,121143
112136,121149
112111,121147
112139,121126
112127,121141
112153,121126
112150,121173
112129,121119
112193,121193
112140,121160
112158,121164
112145,121150
112167,121194
112157,121160
112193,121170
112184,121153
112180,121169
112171,121135
112187,121198
112184,121172
112210,121151
112237,121205
112193,121206
112231,121165
112226,121219
112205,121166
112231,121203
112222,121187
112261,121186
112226,121209
112221,121171
112257,121204
112203,121168
112241,121215
112242,121189
112213,121207
112261,121218
112210,121215
112249,121193
112217,121199
112264,121232
112241,121202
112254,121190
112281,121224
112265,121189
112292,121205
112266,121237
112263,121181
112277,121231
112258,121229
112262,121217
112304,121203
112266,121229
112324,121233
112269,121240
112283,121209
112276,121250
112294,121192
112290,121243
112294,121220
112316,121227
112287,121252
112307,121191
112306,121239
112320,121227
112324,121262
112298,121254
112310,121230
112320,121231
112302,121225
112325,121219
112312,121232
112297,121218
112327,121218
112321,121245
112300,121216
112342,121220
112301,121252
112309,121205
112352,121247
112305,121210
112347,121205
112315,121206
112348,121207
112326,121229
112358,121222
112363,121224
112310,121228
112364,121251
112367,121258
112351,121218
112355,121218
112373,121264
112377,121236
112392,121228
112359,121249
112393,121222
112386,121258
112371,121225
112422,121241
112392,121254
112398,121226
112394,121247
112377,121231
112415,121248
112389,121224
112419,121242
112350,121234
112369,121234
112379,121249
112346,121199
112335,121208
112292,121164
112289,121160
112248,121171
112186,121122
112111,121032
111988,121028
111809,120932
111702,120882
111571,120811
111502,120780
111396,120689
111349,120690
111230,120667
111211,120597
111149,120603
111083,120533
111114,120555
111023,120554
111047,120497
111039,120550
111037,120505
111056,120548
111044,120526
111106,120559
111094,120575
111147,120553
111175,120597
111188,120623
111205,120629
111227,120662
111262,120637
111309,120683
111296,120657
111330,120671
111349,120734
111374,120691
111391,120736
111392,120723
111456,120744
111435,120767
111461,120734
111487,120796
111507,120781
111503,120777
111507,120791
111563,120799
111527,120834
111559,120826
111568,120846
111583,120775
111548,120824
111561,120810
111581,120824
111580,120814
111607,120842
111583,120826
111595,120824
111606,120862
111606,120832
111188,120623
111661,120854
111643,120882
111621,120880
111616,120840
111651,120866
111619,120850
111635,120837
111632,120875
111597,120832
111658,120866
111591,120845
111620,120830
111578,120871
111614,120810
111561,120840
111564,120805
111568,120805
111549,120803
111511,120765
111513,120789
111477,120761
111506,120759
111453,120742
111469,120731
111481,120763
111444,120734
111455,120743
111439,120730
111459,120738
111430,120756
111432,120730
111476,120755
111442,120743
111447,120729
111463,120727
111500,120740
111489,120761
111529,120807
111492,120757
111518,120786
111502,120775
111551,120762
111537,120799
111579,120815
111570,120803
111592,120799
111643,120858
111602,120816
111628,120850
111626,120834
111672,120847
111670,120877
111697,120866
111675,120889
111713,120873
111714,120862
111702,120906
111713,120867
111734,120895
111715,120882
111761,120905
111736,120920
111751,120876
111783,120914
111748,120907
111741,120901
111779,120931
111779,120918
111765,120917
111830,120918
111818,120939
111798,120958
111802,120915
111813,120934
111784,120930
111840,120934
111787,120950
111808,120914
111843,120965
111824,120898
111837,120951
111810,120962
111858,120945
111827,120950
111821,120922
111843,120958
111843,120925
111819,120928
111864,120943
111836,120938
111849,120952
111846,120954
111870,120972
111830,120948
111851,120947
111844,120951
111855,120938
111862,120941
111827,120955
111862,120941
111838,120967
111815,120915
111835,120933
111854,120917
111857,120939
111873,120945
111826,120967
111857,120929
111877,120983
111842,120925
111868,120952
111855,120941
111878,120936
111854,120989
111883,120942
111900,120942
111881,120960
111868,120967
111890,120953
111875,120970
111899,120977
111882,120934
111895,120967
111882,120971
111903,120934
111902,120968
111876,120933
111925,120964
111874,120976
111896,120927
111931,120964
111886,120924
111907,120940
111883,120989
111896,120947
111926,120971
111895,120944
111892,120943
111925,120977
111913,120938
111880,120966
111921,120964
111927,120977
111936,120951
111924,120991
111906,120952
111957,120976
111939,121000
111926,120983
111979,121003
111946,121001
111975,120995
111964,121002
111937,120977
111967,120983
111976,120998
111967,120950
111975,120980
111985,121006
112000,120980
111972,121026
111973,120978
112005,121005
111974,120986
111999,120990
111957,121006
112020,121001
112007,120999
112024,120992
112016,121015
111992,121000
111913,120938
112010,120992
112013,121015
112053,121020
112021,121007
112041,121032
112002,120996
112062,121011
112029,121038
112042,120983
112077,121037
112036,121025
112064,121006
112072,121032
112066,121004
112062,121035
112030,121021
112071,121031
112091,121015
112112,121028
112063,121024
112065,121049
112088,121021
112111,121047
112089,121070
112114,121022
112132,121064
112099,121038
112117,121047
112102,121069
112136,121017
112138,121070
112105,121039
112129,121038
112104,121051
112078,121055
112028,120991
111959,120971
111841,120913
111728,120840
111569,120749
111349,120625
111249,120584
111039,120499
110925,120376
110792,120320
110666,120269
110539,120209
110460,120162
110419,120181
110296,120133
110282,120093
110217,120072
110221,120069
110170,120066
110160,120050
110126,120030
110151,120067
110112,120062
110180,120042
110141,120100
110163,120053
110227,120131
110219,120120
110286,120123
110312,120174
110365,120140
110400,120217
110426,120219
110488,120230
110535,120269
110555,120286
110624,120298
110640,120337
110662,120361
110684,120315
110738,120365
110723,120343
110789,120351
110760,120389
110797,120372
110840,120429
110822,120405
110856,120407
110854,120429
110894,120411
110930,120444
110948,120472
110960,120486
110993,120499
111044,120477
111094,120562
111084,120521
111135,120572
111159,120538
111186,120590
111208,120576
111279,120594
111258,120648
111271,120613
111332,120637
111291,120664
111337,120647
111343,120670
111328,120657
111361,120655
111373,120647
111328,120624
111323,120656
111320,120663
111294,120655
111287,120618
111280,120617
111276,120614
111274,120604
111216,120597
111230,120592
111220,120593
111160,120553
111169,120550
111164,120550
111168,120555
111117,120542
111128,120536
111150,120559
111099,120541
111138,120543
111177,120527
111163,120556
111198,120567
111204,120586
111234,120569
111268,120592
111261,120621
111279,120627
111285,120620
111333,120624
111329,120668
111358,120653
111342,120647
111405,120676
111426,120672
111416,120705
111410,120671
111428,120692
111434,120712
111434,120693
111481,120710
111464,120743
111473,120694
111521,120747
111513,120735
111512,120738
111531,120777
111545,120732
111559,120767
111551,120748
111589,120768
111561,120804
111575,120767
111608,120787
111598,120776
111623,120782
111599,120819
111605,120784
111637,120817
111612,120811
111641,120805
111615,120824
111622,120829
111631,120821
111669,120848
111665,120824
111653,120838
111686,120829
111651,120834
111657,120830
111713,120827
111671,120841
111686,120812
111707,120854
111691,120811
111730,120849
111705,120851
111735,120846
111717,120874
111742,120818
111760,120873
111711,120862
111715,120858
111763,120878
111776,120857
111747,120854
111759,120864
111791,120873
111775,120891
111760,120882
111795,120868
111774,120890
111780,120850
111815,120881
111785,120893
111802,120858
111836,120907
111809,120878
111846,120872
111834,120890
111821,120917
111863,120884
111865,120911
111844,120891
111871,120873
111898,120923
111836,120901
111870,120898
111870,120907
111895,120915
111883,120936
111883,120887
111899,120939
111868,120934
111888,120948
111905,120921
111915,120935
111932,120939
111948,120936
111952,120953
111906,120958
111944,120917
111977,120939
111953,120939
111955,120941
111962,120961
111982,120925
111968,120959
111949,120942
111999,120956
111947,120979
111997,120944
112006,120970
111968,120962
111961,120954
111971,120963
112007,120963
111995,120939
112016,120952
112010,120980
112009,120990
112007,120974
112024,120962
112043,121025
112011,120953
112070,121010
112033,120990
112026,120974
112055,121051
112038,120996
112074,121005
112067,121004
112058,121004
112064,121043
112055,120997
112090,121014
112073,121034
112064,120984
112101,121031
112046,121027
112095,121009
112076,121022
112095,121029
112086,121021
112125,120994
112089,121038
112074,121010
112138,121014
112114,121040
112105,121007
112129,121028
112151,121018
112125,121066
112143,121019
112163,121074
112136,120997
112154,121024
112129,121051
112183,121032
112153,121070
112155,121010
112184,121040
112143,121081
112173,121051
112201,121098
112175,121047
112189,121051
112172,121083
112179,121076
112152,121057
112208,121074
112172,121067
112192,121044
112120,121045
112105,120975
112118,121017
112028,120976
112003,120948
111922,120921
111834,120831
111712,120828
111587,120728
111524,120675
111403,120629
111310,120576
111215,120497
111179,120491
111059,120421
111048,120436
110939,120407
110931,120353
110916,120394
110875,120317
110848,120365
110891,120351
110869,120330
110894,120356
110957,120424
110995,120390
111011,120416
111046,120454
111103,120480
111148,120513
111209,120507
111263,120568
111272,120522
111335,120587
111342,120625
111403,120610
111426,120647
111430,120628
111474,120654
111479,120655
111511,120674
111485,120705
111513,120659
111537,120716
111529,120698
111510,120687
111512,120701
111554,120723
111559,120704
111525,120736
111565,120704
111575,120753
111555,120693
111598,120751
111573,120720
111601,120736
111580,120769
111594,120722
111648,120762
111643,120764
111670,120760
111657,120776
111653,120772
111701,120755
111697,120789
111669,120781
111716,120799
111682,120793
111683,120780
111711,120817
111681,120776
111704,120776
111680,120790
111632,120790
111660,120754
111674,120773
111606,120714
111633,120750
111601,120720
111585,120724
111560,120729
111540,120667
111516,120663
111519,120668
111469,120633
111499,120655
111432,120663
111429,120611
111460,120650
111425,120604
111451,120624
111405,120624
111458,120603
111423,120654
111462,120631
111459,120629
111483,120642
111485,120639
111524,120678
111513,120678
111512,120646
111542,120703
111531,120676
111581,120683
111582,120719
111600,120687
111625,120730
111596,120726
111647,120717
111618,120747
111663,120704
111634,120753
111651,120723
111674,120746
111679,120766
111702,120759
111702,120768
111693,120776
111715,120744
111697,120768
111731,120765
111722,120767
111715,120763
111750,120760
111738,120799
111755,120784
111745,120800
111729,120798
111796,120797
111781,120821
111778,120806
111814,120805
111805,120810
111822,120825
111809,120867
111807,120798
111841,120849
111798,120824
111836,120827
111841,120838
111819,120822
111829,120856
111807,120823
111848,120842
111867,120831
111839,120839
111886,120823
111849,120844
111836,120847
111849,120861
111884,120838
111861,120848
111876,120833
111863,120883
111877,120846
111944,120892
111900,120852
111941,120870
111907,120904
111932,120859
111948,120910
111903,120858
111970,120904
111924,120926
111939,120913
111955,120916
111929,120892
111944,120916
111933,120924
111957,120914
111920,120877
111950,120904
111920,120904
111986,120898
111935,120918
111931,120874
111955,120910
111924,120890
111968,120893
111941,120913
111926,120873
111951,120918
111942,120877
111965,120927
111956,120889
111985,120867
111980,120908
111942,120901
111969,120887
111967,120913
111968,120867
111956,120898
111952,120849
111996,120930
111984,120895
111981,120907
111995,120882
111998,120927
112001,120883
112023,120902
112006,120926
112030,120924
112027,120916
112031,120949
112004,120890
112032,120926
112018,120918
112035,120906
112066,120954
112036,120933
112087,120940
112049,120948
112063,120933
112074,120966
112062,120933
112072,120945
112064,120933
112089,120950
112039,120960
112060,120933
112103,120939
112053,120964
112058,120940
112097,120952
112061,120967
112077,120930
112080,120967
112051,120916
112089,120955
112073,120938
112098,120939
112071,120948
112080,120925
112095,120949
112077,120954
112082,120910
112077,120923
112114,120943
112079,120971
112065,120907
112105,120964
112085,120948
112095,120935
112099,120962
112093,120947
112108,120963
112084,120957
112091,120925
112132,120980
112080,120928
112103,120958
112102,120968
112089,120949
112136,120926
112126,120960
112094,120932
112095,120927
112138,120967
112095,120939
112125,120937
112131,120966
112114,120942
112128,120960
112115,120930
112134,120931
112116,120956
112098,120926
112137,120933
112104,120925
112060,120926
111996,120876
111880,120782
111763,120731
111588,120649
111369,120505
111181,120417
110951,120295
110783,120176
110605,120144
110497,120016
110395,120032
110250,119946
110215,119922
110150,119906
110068,119844
110035,119840
109957,119845
109937,119787
109887,119775
109878,119784
109827,119774
109826,119722
109783,119766
109792,119721
109817,119744
109801,119727
109804,119741
109822,119745
109815,119757
109817,119768
109850,119767
109870,119795
109874,119787
109936,119822
109923,119823
109962,119848
109964,119831
110007,119851
110021,119870
110035,119863
110041,119918
110048,119866
110111,119910
110099,119896
110088,119912
110115,119924
110110,119901
110106,119941
110084,119905
110124,119916
110094,119891
110069,119898
110087,119888
110041,119880
110083,119893
110040,119868
110099,119926
110093,119911
110106,119927
110142,119931
110159,119949
110190,119957
110205,119978
110256,119998
110271,119984
110272,120022
110342,120050
110330,120029
110348,120029
110356,120019
110335,120029
110314,120007
110339,120003
110283,119999
110316,119989
110285,120003
110297,119987
110274,119989
110208,119961
110247,119930
110218,119929
110236,119980
110215,119919
110199,119949
110204,119932
110179,119938
110160,119888
110184,119932
110187,119926
110165,119905
110175,119913
110141,119918
110161,119894
110166,119907
110135,119867
110164,119919
110124,119907
110155,119906
110134,119932
110159,119901
110155,119913
110149,119937
110196,119961
110224,119955
110248,119933
110255,119978
110252,119982
110334,120016
110338,120018
110347,120000
110413,120037
110402,120075
110461,120064
110497,120107
110499,120088
110520,120109
110528,120112
110577,120131
110568,120123
110594,120139
110555,120138
110607,120142
110622,120151
110609,120165
110646,120174
110665,120172
110651,120198
110654,120161
110708,120171
110676,120212
110720,120195
110747,120223
110724,120220
110801,120232
110760,120256
110774,120243
110801,120246
110807,120262
110855,120241
110830,120251
110868,120285
110852,120268
110884,120285
110848,120283
110870,120261
110904,120289
110867,120275
110910,120281
110886,120306
110895,120287
110885,120289
110864,120284
110889,120270
110881,120285
110880,120272
110892,120283
110907,120295
110873,120293
110861,120261
110878,120292
110848,120273
110908,120273
110885,120295
110888,120249
110894,120297
110888,120261
110915,120282
110890,120299
110894,120247
110933,120297
110916,120284
110898,120304
110905,120284
110917,120311
110938,120302
110913,120323
110921,120275
110939,120296
110918,120321
110978,120292
110961,120314
110977,120300
111004,120321
110968,120354
111002,120315
111039,120349
111016,120330
111022,120344
111069,120349
111054,120343
111048,120350
111070,120329
111096,120374
111081,120351
111084,120362
111077,120357
111098,120348
111083,120378
111066,120326
111123,120370
111071,120365
111090,120383
111077,120350
111099,120370
111100,120376
111127,120358
111101,120361
111133,120379
111108,120385
111102,120381
111167,120382
111118,120403
111141,120375
111183,120409
111158,120405
111208,120405
111198,120433
111186,120390
111230,120430
111220,120421
111257,120423
111231,120444
111239,120437
111253,120473
111256,120439
111286,120472
111274,120448
111301,120480
111295,120427
111301,120448
111288,120468
111333,120450
111319,120478
111317,120451
111334,120458
111282,120470
111305,120443
111313,120491
111311,120463
111312,120452
111285,120465
111308,120487
111355,120513
111349,120450
111379,120531
111368,120492
111413,120525
111385,120501
111427,120554
111419,120489
111437,120527
111475,120518
111467,120544
111451,120514
111508,120537
111441,120554
111479,120530
111455,120525
111464,120528
111419,120480
111445,120502
111318,120461
111264,120388
111126,120342
110971,120208
110799,120142
110570,120011
110426,119913
110214,119846
110064,119742
109930,119708
109783,119581
109651,119560
109510,119469
109352,119423
109260,119366
109158,119325
109039,119270
108976,119264
108904,119209
108875,119208
108772,119141
108743,119101
108696,119132
108641,119067
108621,119069
108600,119075
108570,119013
108520,119048
108485,118977
108482,118996
108452,118983
108424,118984
108408,118954
108404,118975
108364,118910
108341,118933
108276,118877
108317,118883
108245,118864
108250,118871
108207,118839
108188,118853
108139,118848
108174,118824
108099,118842
108069,118762
108096,118810
108077,118783
108019,118731
107981,118769
107950,118735
107953,118715
107919,118685
107884,118695
107850,118650
107839,118688
107781,118651
107754,118614
107716,118639
107727,118564
107682,118600
107638,118550
107635,118559
107571,118561
107562,118526
107523,118522
107467,118502
107421,118470
107413,118470
107340,118406
107325,118384
107231,118411
107195,118328
107156,118325
107048,118276
107013,118232
106943,118225
106886,118159
106835,118161
106752,118106
106690,118056
106616,118068
106548,118058
106505,117985
106442,117924
106401,117910
106310,117877
106266,117862
106192,117858
106154,117799
106049,117768
106022,117765
105982,117729
105958,117653
105899,117669
105823,117606
105827,117667
105767,117641
105761,117591
105754,117593
105758,117571
105726,117559
105731,117583
105713,117570
105661,117555
105688,117507
105660,117576
105664,117505
105673,117558
105635,117512
105645,117517
105627,117516
105628,117501
105611,117526
105626,117511
105592,117511
105611,117505
105607,117498
105607,117515
105611,117503
105616,117509
105620,117504
105612,117461
105640,117537
105617,117480
105654,117463
105620,117520
105605,117480
105641,117531
105604,117478
105607,117493
105565,117466
105584,117457
105565,117463
105537,117430
105501,117449
105455,117414
105493,117397
105439,117401
105403,117370
105397,117369
105392,117366
105370,117354
105367,117332
105354,117338
105310,117301
105335,117309
105301,117313
105287,117281
105307,117319
105277,117290
105275,117280
105279,117288
105272,117308
105236,117295
105247,117240
105239,117282
105203,117237
105258,117301
105216,117275
105233,117268
105237,117286
105226,117232
105222,117276
105232,117244
105233,117284
105213,117237
105248,117254
105220,117256
105253,117255
105212,117263
105223,117261
105175,117227
105228,117258
105180,117246
105164,117224
105159,117214
105149,117198
105179,117218
105144,117212
105152,117187
105149,117230
105130,117181
105174,117203
105150,117212
105128,117186
105142,117179
105128,117202
105096,117193
105112,117150
105101,117171
105052,117151
105064,117130
105050,117132
104972,117104
105005,117112
104946,117090
104928,117055
104907,117063
104858,117050
104862,117014
104815,117014
104800,117001
104794,116988
104759,116983
104703,116941
104699,116973
104665,116912
104657,116932
104611,116893
104581,116875
104550,116872
104512,116819
104476,116828
104424,116774
104415,116781
104355,116748
104294,116699
104272,116671
105128,117202
104187,116629
104168,116622
104102,116611
104050,116590
104023,116551
103962,116507
103952,116462
103891,116476
103793,116382
103768,116373
103640,116310
103542,116227
103442,116166
103298,116081
103180,115997
102995,115894
102848,115814
102687,115681
102543,115605
102344,115507
102205,115399
102024,115339
101915,115225
101747,115160
101595,115047
101528,115008
101347,114938
101229,114809
101118,114803
100969,114697
100871,114646
100723,114573
100558,114416
100383,114350
100145,114224
99931,114099
99641,113919
99311,113723
98992,113556
98548,113306
98130,113121
97620,112882
97070,112544
96435,112254
95850,111961
95216,111630
94637,111298
94035,111023
93535,110705
93099,110509
92624,110244
92176,110022
91756,109803
91275,109550
90842,109283
90393,109036
89927,108745
89462,108471
89006,108210
88547,107899
88101,107603
87639,107266
87257,107030
86806,106676
86259,106178
85602,105524
84795,104745
83708,103508
82211,101808
80523,99436
77882,96407
74663,92628
71346,88686
67928,84840
64862,81383
62098,78507
59770,76175
57951,74632
58660,77463
62089,83988
62073,85683
61242,85714
60249,85202
59423,84473
58954,84052
58494,83636
57875,82940
56960,81931
55743,80487
54301,78652
52705,76558
50990,74342
49412,72038
48119,69861
46570,67713
44947,65507
43171,63217
41291,60598
39392,57861
37384,55040
35511,52293
33762,49799
32273,47805
30813,45543
29337,43336
27893,41233
26480,39187
25054,37036
23494,34663
21763,32295
20019,29760
18222,27077
16306,24208
14534,21521
12792,18912
11147,16472
9670,14293
8349,12295
7170,10531
6176,9111
5348,7830
4598,6795
4013,5879
3541,5148
3152,4488
2796,3973
2464,3487
2243,3104
1994,2779
1819,2484
1689,2271
1527,2032
1441,1874
1385,1800
1318,1630
1286,1544
1224,1560
1200,1481
1179,1415
1119,1376
1141,1401
1123,1311
1077,1318
1111,1275
1106,1313
1056,1235
1059,1263
1017,1272
985,1184
991,1183
949,1213
990,1125
972,1157
945,1173
942,1153
929,1098
864,1111
884,1101
874,1054
850,1025
873,1062
886,1102
844,1015
875,1060
816,1052
842,984
822,1009
795,1012
827,976
850,969
842,1018
843,1004
822,1008
787,991
800,1002
803,975
783,936
766,960
819,995
811,970
820,972
767,991
824,968
777,945
754,950
769,937
800,933
772,955
795,969
782,959
770,962
742,940
794,941
713,906
759,921
772,945
807,945
777,896
752,955
741,926
756,919
711,904
793,925
743,916
751,899
776,942
788,972
772,902
741,945
718,904
753,905
710,888
779,913
773,901
740,896
781,938
781,940
754,886
743,942
748,911
751,886
711,881
772,919
822,889
730,878
788,914
788,915
742,880
709,889
778,921
722,883
703,845
796,894
752,872
732,855
790,958
762,890
749,888
747,948
763,889
741,945
774,923
737,884
722,831
745,894
759,861
742,850
778,896
773,927
728,834
761,905
738,893
715,840
699,855
724,887
778,834
741,912
767,883
818,891
727,891
746,911
736,869
717,882
684,852
738,829
716,850
715,841
769,838
741,855
721,892
797,932
748,905
715,843
701,884
759,859
709,821
738,850
746,859
790,883
729,925
764,893
788,914
690,891
732,889
753,876
706,820
746,858
775,950
744,853
745,898
723,904
760,866
674,849
730,872
733,845
729,848
727,864
762,929
749,883
752,858
736,937
733,867
717,830
742,892
720,851
804,848
725,905
760,893
782,895
740,882
692,848
777,843
716,829
725,840
745,877
785,883
719,878
