11111
0
0
0
0
0
0
0
0
0
0
0
0
0
0
0
0
0
0
0
0
0
0
0
0
0
0
0
0
0
0
0
0
0
0
0
0
0
0
0
0
0
0
0
0
0
0
0
0
0
0
0
0
0
0
0
0
0
0
0
0
0
0
0
0
0
0
0
0
0
0
0
0
0
0
0
0
0
0
0
0
0
0
0
0
0
0
0
0
0
0
0
0
0
0
0
0
0
0
0
0
0
0
0
0
0
0
0
0
0
0
0
0
0
0
0
0
0
0
0
0
0
0
0
0
0
0
0
0
0
0
0
0
0
0
0
0
0
0
0
0
0
0
0
0
0
0
0
0
0
0
0
0
0
0
0
0
0
0
0
0
0
0
0
0
0
0
0
0
0
0
0
0
0
0
0
0
0
0
0
0
0
0
0
0
0
0
0
0
0
0
0
0
0
0
0
0
0
0
0
0
0
0
0
0
0
0
0
0
0
0
0
0
0
0
0
0
0
0
0
0
0
0
0
0
0
0
0
0
0
0
0
0
0
0
0
0
0
0
0
0
0
0
0
0
0
0
0
0
0
0
0
0
0
0
0
0
0
0
0
0
0
0
0
0
0
0
0
0
0
0
0
0
0
0
0
0
0
0
0
0
0
0
0
0
0
0
0
0
0
0
0
0
0
0
0
0
0
0
0
0
0
0
0
0
0
0
0
0
0
0
0
0
0
0
0
0
0
0
0
0
0
0
0
0
0
0
0
0
0
0
0
0
0
0
0
0
0
0
0
0
0
0
0
0
0
0
0
0
0
0
0
0
0
0
0
0
0
0
0
0
0
0
0
0
0
0
0
0
0
0
0
0
0
0
0
0
0
0
0
0
0
0
0
0
0
0
0
0
0
0
0
0
0
0
0
0
0
0
0
0
0
0
0
0
0
0
0
0
0
0
0
0
0
0
0
0
0
0
0
0
0
0
0
0
0
0
0
0
0
0
0
0
0
0
0
0
0
0
0
0
0
0
0
0
0
0
0
0
0
0
0
0
0
0
0
0
0
0
0
0
0
0
0
0
0
0
0
0
0
0
0
0
0
0
0
0
0
0
0
0
0
0
0
0
0
0
0
0
0
0
0
0
0
0
0
0
0
0
0
0
0
0
0
0
0
0
0
0
0
0
0
0
0
0
0
0
0
0
0
0
0
0
0
0
0
0
0
0
0
0
0
0
0
0
0
0
0
0
0
0
0
0
0
0
0
0
0
0
0
0
0
0
0
0
0
0
0
0
0
0
0
0
0
0
0
0
0
0
0
0
0
0
0
0
0
0
0
0
0
0
0
0
0
0
0
0
0
0
0
0
0
0
0
0
0
0
0
0
0
0
0
0
0
0
0
0
0
0
0
0
0
0
0
0
0
0
0
0
0
0
0
0
0
0
0
0
0
0
0
0
0
0
0
0
0
0
0
0
0
0
0
0
0
0
0
0
0
0
0
0
0
0
0
0
0
0
0
0
0
0
0
0
0
0
0
0
0
0
0
0
0
0
0
0
0
0
0
0
0
0
0
0
0
0
0
0
0
0
0
0
0
0
0
0
0
0
0
0
0
0
0
0
0
0
0
0
0
0
0
0
0
0
0
0
0
0
0
0
0
0
0
0
0
0
0
0
0
0
0
0
0
0
0
0
0
0
0
0
0
0
0
0
0
0
0
0
0
0
0
0
0
0
0
0
0
0
0
0
0
0
0
0
0
0
0
0
0
0
0
0
0
0
0
0
0
0
0
0
0
0
0
0
0
0
0
0
0
0
0
0
0
0
0
0
0
0
0
0
0
0
0
0
0
0
0
0
0
0
0
0
0
0
0
0
0
0
0
0
0
0
0
0
0
0
0
0
0
0
0
0
0
0
0
0
0
0
0
0
0
0
0
0
0
0
0
0
0
0
0
0
0
0
0
0
0
0
0
0
0
0
0
0
0
0
0
0
0
0
0
0
0
0
0
0
0
0
0
0
0
0
0
0
0
0
0
0
0
0
0
0
0
0
0
0
0
0
0
0
0
0
0
0
0
0
0
0
0
0
0
0
0
0
0
0
0
0
0
0
0
0
0
0
0
0
0
0
0
0
0
0
0
0
0
0
0
0
0
0
0
0
0
0
0
0
0
0
0
0
0
0
0
0
0
0
0
0
0
0
0
0
0
0
0
0
0
0
0
0
0
0
0
0
0
0
0
0
0
0
0
0
0
0
0
0
0
0
0
0
0
0
0
0
0
0
0
0
0
0
0
0
0
0
0
0
0
0
0
0
0
0
0
0
0
0
0
0
0
0
0
0
0
0
0
0
0
0
0
0
0
0
0
0
0
0
0
0
0
0
0
0
0
0
0
0
0
0
0
0
0
0
0
0
0
0
0
0
0
0
0
0
0
0
0
0
0
0
0
0
0
0
0
0
0
0
0
0
0
0
0
0
0
0
0
0
0
0
0
0
0
0
0
0
0
0
0
0
0
0
0
0
0
0
0
0
0
0
0
0
0
0
0
0
0
0
0
0
0
0
0
0
0
0
0
0
0
0
0
0
0
0
0
0
0
0
0
0
0
0
0
0
0
0
0
0
0
0
0
0
0
0
0
0
0
0
0
0
0
0
0
0
0
0
0
0
0
0
0
0
0
0
0
0
0
0
0
0
0
0
0
0
0
0
0
0
0
0
0
0
0
0
0
0
0
0
0
0
0
0
0
0
0
0
0
0
0
0
0
0
0
0
0
0
0
0
0
0
0
0
0
0
0
0
0
0
0
0
0
0
0
0
0
0
0
0
0
0
0
0
0
0
0
0
0
0
0
0
0
0
0
0
0
0
0
0
0
0
0
0
0
0
0
0
0
0
0
0
0
0
0
0
0
0
0
0
0
0
0
0
0
0
0
0
0
0
0
0
0
0
0
0
0
0
0
0
0
0
0
0
0
0
0
0
0
0
0
0
0
0
0
0
0
0
0
0
0
0
0
0
0
0
0
0
0
0
0
0
0
0
0
0
0
0
0
0
0
0
0
0
0
0
0
0
0
0
0
0
0
0
0
0
0
0
0
0
0
0
0
0
0
0
0
0
0
0
0
0
0
0
0
0
0
0
0
0
0
0
0
0
0
0
0
0
0
0
0
0
0
0
0
0
0
0
0
0
0
0
0
0
0
0
0
0
0
0
0
0
0
0
0
0
0
0
0
0
0
0
0
0
0
0
0
0
0
0
0
0
0
0
0
0
0
0
0
0
0
0
0
0
0
0
0
0
0
0
0
0
0
0
0
0
0
0
0
0
0
0
0
0
0
0
0
0
0
0
0
0
0
0
0
0
0
0
0
0
0
0
0
0
0
0
0
0
0
0
0
0
0
0
0
0
0
0
0
0
0
0
0
0
0
0
0
0
0
0
0
0
0
0
0
0
0
0
0
0
0
0
0
0
0
0
0
0
0
0
0
0
0
0
0
0
0
0
0
0
0
0
0
0
0
0
0
0
0
0
0
0
0
0
0
0
0
0
0
0
0
0
0
0
0
0
0
0
0
0
0
0
0
0
0
0
0
0
0
0
0
0
0
0
0
0
0
0
0
0
0
0
0
0
0
0
0
0
0
0
0
0
0
0
0
0
0
0
0
0
0
0
0
0
0
0
0
0
0
0
0
0
0
0
0
0
0
0
0
0
0
0
0
0
0
0
0
0
0
0
0
0
0
0
0
0
0
0
0
0
0
0
0
0
0
0
0
0
0
0
0
0
0
0
0
0
0
0
0
0
0
0
0
0
0
0
0
0
0
0
0
0
0
0
0
0
0
0
0
0
0
0
0
0
0
0
0
0
0
0
0
0
0
0
0
0
0
0
0
0
0
0
0
0
0
0
0
0
0
0
0
0
0
0
0
0
0
0
0
0
0
0
0
0
0
0
0
0
0
0
0
0
0
0
0
0
0
0
0
0
0
0
0
0
0
0
0
0
0
0
0
0
0
0
0
0
0
0
0
0
0
0
0
0
0
0
0
0
0
0
0
0
0
0
0
0
0
0
0
0
0
0
0
0
0
0
0
0
0
0
0
0
0
0
0
0
0
0
0
0
0
0
0
0
0
0
0
0
0
0
0
0
0
0
0
0
0
0
0
0
0
0
0
0
0
0
0
0
0
0
0
0
0
0
0
0
0
0
0
0
0
0
0
0
0
0
0
0
0
0
0
0
0
0
0
0
0
0
0
0
0
0
0
0
0
0
0
0
0
0
0
0
0
0
0
0
0
0
0
0
0
0
0
0
0
0
0
0
0
0
0
0
0
0
0
0
0
0
0
0
0
0
0
0
0
0
0
0
0
0
0
0
0
0
0
0
0
0
0
0
0
0
0
0
0
0
0
0
0
0
0
0
0
0
0
0
0
0
0
0
0
0
0
0
0
0
0
0
0
0
0
0
0
0
0
0
0
0
0
0
0
0
0
0
0
0
0
0
0
0
0
0
0
0
0
0
0
0
0
0
0
0
0
0
0
0
0
0
0
0
0
0
0
0
0
0
0
0
0
0
0
0
0
0
0
0
0
0
0
0
0
0
0
0
0
0
0
0
0
0
0
0
0
0
0
0
0
0
0
0
0
0
0
0
0
0
0
0
0
0
0
0
0
0
0
0
0
0
0
0
0
0
0
0
0
0
0
0
0
0
0
0
0
0
0
0
0
0
0
0
0
0
0
0
0
0
0
0
0
0
0
0
0
0
0
0
0
0
0
0
0
0
0
0
0
0
0
0
0
0
0
0
0
0
0
0
0
0
0
0
0
0
0
0
0
0
0
0
0
0
0
0
0
0
0
0
0
0
0
0
0
0
0
0
0
0
0
0
0
0
0
0
0
0
0
0
0
0
0
0
0
0
0
0
0
0
0
0
0
0
0
0
0
0
0
0
0
0
0
0
0
0
0
0
0
0
0
0
0
0
0
0
0
0
-1
0
-1
0
-1
0
-1
0
-19
-17
-18
-21
-23
-28
-31
-36
-40
-46
-52
-56
-61
-67
-73
-79
-85
-91
-96
-103
-106
-114
-121
-127
-132
-138
-144
-150
-156
-163
-167
-175
-180
-185
-192
-197
-203
-208
-215
-219
-226
-232
-237
-243
-249
-254
-259
-266
-270
-277
-282
-289
-294
-300
-306
-311
-316
-321
-326
-330
-338
-345
-348
-353
-359
-364
-370
-374
-381
-386
-390
-396
-401
-407
-412
-416
-422
-427
-432
-439
-442
-449
-454
-459
-463
-466
-474
-479
-484
-490
-494
-499
-506
-509
-513
-519
-524
-530
-536
-538
-545
-549
-553
-560
-563
-568
-573
-578
-581
-587
-592
-596
-600
-607
-609
-616
-620
-623
-630
-635
-638
-642
-650
-651
-658
-662
-667
-672
-675
-680
-685
-688
-693
-698
-701
-707
-709
-715
-720
-724
-728
-732
-737
-743
-744
-748
-755
-759
-763
-766
-772
-776
-780
-782
-786
-792
-796
-800
-802
-810
-813
-819
-822
-825
-830
-834
-836
-841
-846
-849
-853
-858
-862
-865
-869
-873
-878
-880
-885
-889
-893
-896
-899
-904
-908
-910
-915
-920
-923
-926
-931
-935
-938
-942
-945
-949
-953
-957
-959
-964
-968
-971
-976
-978
-982
-987
-990
-993
-997
-999
-1004
-1006
-1011
-1016
-1020
-1021
-1025
-1031
-1031
-1038
-1038
-1042
-1046
-1050
-1053
-1057
-1061
-1063
-1068
-1070
-1073
-1077
-1080
-1083
-1086
-1090
-1093
-1096
-1099
-1103
-1106
-1109
-1113
-1115
-1120
-1122
-1125
-1127
-1132
-1134
-1138
-1141
-1144
-1146
-1150
-1152
-1156
-1159
-1162
-1165
-1168
-1171
-1174
-1177
-1178
-1182
-1187
-1190
-1192
-1196
-1199
-1200
-1204
-1208
-1210
-1213
-1217
-1219
-1221
-1224
-1228
-1231
-1233
-1236
-1239
-1241
-1242
-1248
-1249
-1253
-1255
-1258
-1260
-1263
-1267
-1268
-1270
-1275
-1277
-1280
-1281
-1285
-1286
-1291
-1293
-1294
-1298
-1302
-1304
-1305
-1309
-1310
-1314
-1317
-1320
-1322
-1324
-1327
-1330
-1332
-1335
-1337
-1339
-1341
-1344
-1347
-1351
-1351
-1352
-1355
-1360
-1361
-1362
-1366
-1368
-1370
-1373
-1376
-1378
-1380
-1382
-1386
-1386
-1389
-1393
-1394
-1397
-1399
-1402
-1403
-1406
-1408
-1410
-1412
-1415
-1417
-1419
-1421
-1422
-1425
-1426
-1429
-1432
-1435
-1436
-1437
-1441
-1440
-1445
-1447
-1448
-1452
-1452
-1455
-1458
-1460
-1462
-1464
-1466
-1468
-1470
-1473
-1474
-1476
-1478
-1480
-1482
-1484
-1485
-1488
-1491
-1490
-1492
-1495
-1497
-1498@
-1500
-1503
-1503
-1506
-1508
-1511
-1513
-1514
-1515
-1517
-1520
-1521
-1523
-1525
-1525
-1530
-1530
-1532
-1533
-1535
-1536
-1538
-1542
-1542
-1543
-1546
-1547
-1549
-1550
-1553
-1553
-1556
-1557
-1560
-1561
-1562
-1564
-1566
-1567
-1570
-1571
-1574
-1574
-1575
-1578
-1577
-1580
-1581
-1585
-1587
-1585
-1588
-1590
-1593
-1592
-1594
-1596
-1598
-1599
-1600
-1602
-1604
-1604
-1606
-1609
-1608
-1610
-1613
-1613
-1616
-1617
-1619
-1620
-1620
-1621
-1623
-1624
-1625
-1628
-1628
-1630
-1631
-1633
-1634
-1636
-1636
-1637
-1640
-1642
-1642
-1644
-1645
-1647
-1648
-1648
-1651@
-1651
-1653
-1655
-1654
-1656
-1659
-1657
-1660
-1661
-1662
-1663
-1666
-1667
-1667
-1667
-1670
-1670
-1671
-1675
-1675
-1676
-1677
-1679
-1681
-1680
-1682
-1683
-1684
-1685
-1686
-1688
-1688
-1690
-1691
-1691
-1693
-1692
-1695
-1696
-1696
-1697
-1699
-1701
-1701
-1702
-1703
-1704
-1704
-1706
-1707
-1708
-1709
-1710
-1711
-1713
-1713
-1714
-1716
-1716
-1719
-1717
-1718
-1719
-1723
-1723
-1724
-1726
-1725
-1726
-1726
-1728
-1728
-1730
-1730
-1732
-1732
-1734
-1734
-1735
-1736
-1738
-1739
-1739
-1740
-1739
-1743
-1741
-1742
-1743
-1745
-1745
-1746
-1747
-1748
-1749
-1749@
-1750
-1750
-1751
-1752
-1752
-1754
-1753
-1755
-1756
-1757
-1758
-1758
-1759
-1760
-1761
-1761
-1761
-1761
-1762
-1764
-1763
-1762
-1765
-1766
-1766
-1769
-1767
-1767
-1769
-1769
-1771
-1771
-1770
-1771
-1773
-1774
-1774
-1775
-1777
-1776
-1778
-1779
-1778
-1778
-1779
-1780
-1780
-1781
-1781
-1782
-1783
-1783
-1785
-1784
-1784
-1786
-1787
-1786
-1788
-1788
-1789
-1789
-1790
-1791
-1791
-1791
-1793
-1792
-1792
-1793
-1793
-1793
-1794
-1792
-1795
-1796
-1796
-1797
-1796
-1797
-1797
-1798
-1799
-1799
-1799
-1799
-1800
-1801
-1801
-1801
-1802
-1801
-1803
-1804
-1804
-1805@
-1805
-1806
-1807
-1806
-1807
-1806
-1808
-1807
-1808
-1808
-1809
-1808
-1808
-1809
-1809
-1809
-1810
-1809
-1811
-1811
-1811
-1810
-1811
-1810
-1811
-1813
-1811
-1812
-1812
-1812
-1811
-1813
-1812
-1814
-1813
-1813
-1815
-1816
-1814
-1813
-1814
-1816
-1817
-1816
-1816
-1817
-1818
-1818
-1818
-1818
-1818
-1820
-1819
-1818
-1820
-1820
-1819
-1818
-1822
-1820
-1820
-1820
-1821
-1821
-1821
-1821
-1821
-1821
-1822
-1823
-1823
-1823
-1822
-1823
-1823
-1822
-1823
-1823
-1823
-1823
-1822
-1824
-1824
-1825
-1825
-1825
-1826
-1823
-1826
-1823
-1824
-1825
-1825
-1823
-1823
-1826@
-1826
-1825
-1825
-1825
-1824
-1824
-1825
-1826
-1828
-1825
-1826
-1825
-1825
-1825
-1826
-1825
-1824
-1827
-1825
-1824
-1826
-1825
-1825
-1826
-1827
-1826
-1827
-1826
-1826
-1827
-1825
-1826
-1827
-1826
-1826
-1827
-1827
-1828
-1826
-1826
-1827
-1827
-1825
-1826
-1825
-1826
-1826
-1826
-1826
-1827
-1826
-1825
-1827
-1825
-1826
-1825
-1825
-1824
-1827
-1824
-1825
-1824
-1824
-1824
-1824
-1825
-1823
-1825
-1824
-1822
-1824
-1824
-1823
-1825
-1823
-1823
-1824
-1824
-1823
-1822
-1823
-1822
-1823
-1821
-1822
-1822
-1823
-1821
-1820
-1820
-1821
-1821
-1821
-1820
-1822
-1820@
-1820
-1820
-1820
-1820
-1818
-1819
-1820
-1818
-1818
-1819
-1819
-1819
-1818
-1819
-1818
-1817
-1816
-1817
-1816
-1816
-1815
-1817
-1817
-1815
-1816
-1815
-1815
-1813
-1813
-1815
-1814
-1816
-1813
-1813
-1814
-1812
-1812
-1814
-1812
-1814
-1813
-1812
-1811
-1813
-1811
-1810
-1810
-1810
-1810
-1809
-1809
-1809
-1811
-1808
-1808
-1807
-1806
-1807
-1807
-1806
-1806
-1806
-1805
-1803
-1805
-1804
-1804
-1804
-1803
-1803
-1803
-1803
-1803
-1802
-1802
-1802
-1801
-1801
-1801
-1800
-1800
-1799
-1801
-1799
-1799
-1798
-1798
-1798
-1798
-1797
-1797
-1796
-1796
-1796
-1795
-1796@
-1794
-1795
-1794
-1792
-1792
-1792
-1792
-1791
-1791
-1791
-1790
-1790
-1790
-1788
-1788
-1788
-1789
-1788
-1787
-1786
-1786
-1786
-1786
-1786
-1786
-1786
-1784
-1783
-1784
-1784
-1784
-1783
-1782
-1781
-1780
-1781
-1780
-1780
-1779
-1779
-1778
-1777
-1777
-1778
-1777
-1777
-1776
-1776
-1775
-1776
-1775
-1774
-1773
-1772
-1773
-1773
-1771
-1770
-1770
-1770
-1770
-1771
-1769
-1768
-1769
-1766
-1766
-1767
-1765
-1766
-1765
-1764
-1763
-1762
-1764
-1764
-1762
-1763
-1760
-1761
-1759
-1760
-1760
-1758
-1759
-1758
-1757
-1757
-1755
-1756
-1756
-1754
-1754
-1754
-1753
-1751@
-1752
-1752
-1752
-1750
-1750
-1751
-1750
-1749
-1748
-1747
-1747
-1747
-1747
-1747
-1746
-1745
-1745
-1744
-1744
-1743
-1743
-1744
-1741
-1741
-1741
-1740
-1738
-1739
-1738
-1736
-1736
-1737
-1736
-1736
-1735
-1734
-1733
-1735
-1731
-1733
-1733
-1731
-1730
-1729
-1731
-1730
-1729
-1727
-1726
-1727
-1727
-1725
-1726
-1724
-1724
-1724
-1723
-1721
-1721
-1721
-1719
-1721
-1719
-1717
-1717
-1716
-1717
-1716
-1715
-1717
-1715
-1714
-1714
-1713
-1713
-1711
-1711
-1712
-1710
-1709
-1707
-1708
-1708
-1707
-1706
-1706
-1706
-1704
-1704
-1704
-1704
-1703
-1702
-1702
-1701
-1699@
-1699
-1699
-1698
-1699
-1697
-1697
-1694
-1694
-1694
-1693
-1692
-1694
-1692
-1690
-1691
-1690
-1689
-1688
-1687
-1687
-1685
-1686
-1686
-1683
-1685
-1684
-1682
-1680
-1683
-1680
-1680
-1680
-1677
-1678
-1675
-1678
-1676
-1676
-1676
-1673
-1674
-1672
-1672
-1672
-1671
-1669
-1668
-1669
-1668
-1667
-1666
-1665
-1665
-1664
-1663
-1664
-1662
-1661
-1662
-1659
-1659
-1660
-1658
-1659
-1657
-1659
-1656
-1655
-1654
-1654
-1653
-1652
-1652
-1650
-1650
-1652
-1650
-1647
-1647
-1649
-1647
-1648
-1645
-1645
-1645
-1643
-1644
-1641
-1641
-1641
-1641
-1640
-1639
-1639
-1639
-1636@
-1636
-1637
-1634
-1634
-1635
-1633
-1632
-1632
-1632
-1631
-1631
-1629
-1628
-1627
-1626
-1626
-1626
-1624
-1624
-1624
-1624
-1622
-1622
-1621
-1619
-1619
-1618
-1618
-1617
-1617
-1617
-1615
-1617
-1612
-1614
-1613
-1611
-1611
-1611
-1609
-1611
-1609
-1608
-1608
-1607
-1607
-1604
-1604
-1604
-1602
-1603
-1602
-1602
-1600
-1599
-1598
-1599
-1598
-1596
-1596
-1595
-1595
-1593
-1592
-1593
-1590
-1590
-1590
-1590
-1588
-1588
-1587
-1586
-1586
-1584
-1584
-1584
-1582
-1582
-1580
-1580
-1579
-1580
-1578
-1577
-1575
-1575
-1574
-1575
-1573
-1571
-1570
-1571
-1570
-1570
-1567@
-1567
-1565
-1565
-1564
-1563
-1564
-1562
-1563
-1563
-1559
-1558
-1558
-1559
-1558
-1557
-1556
-1556
-1554
-1554
-1553
-1552
-1550
-1550
-1549
-1549
-1548
-1548
-1548
-1546
-1546
-1544
-1544
-1543
-1543
-1542
-1540
-1540
-1540
-1539
-1539
-1538
-1537
-1538
-1534
-1534
-1533
-1532
-1532
-1531
-1530
-1529
-1529
-1528
-1528
-1527
-1527
-1527
-1524
-1524
-1523
-1522
-1522
-1521
-1520
-1520
-1518
-1519
-1517
-1517
-1516
-1516
-1515
-1513
-1513
-1513
-1514
-1509
-1511
-1509
-1509
-1508
-1506
-1507
-1505
-1504
-1504
-1504
-1503
-1502
-1502
-1499
-1500
-1499
-1498
-1497
-1497@
-1496
-1495
-1495
-1493
-1492
-1492
-1491
-1491
-1490
-1489
-1489
-1487
-1488
-1485
-1485
-1483
-1484
-1484
-1483
-1482
-1483
-1479
-1479
-1478
-1477
-1477
-1477
-1475
-1475
-1474
-1472
-1472
-1470
-1471
-1470
-1470
-1469
-1466
-1469
-1466
-1465
-1464
-1463
-1463
-1461
-1461
-1460
-1459
-1459
-1459
-1456
-1456
-1455
-1456
-1455
-1453
-1454
-1452
-1452
-1450
-1449
-1448
-1448
-1447
-1445
-1444
-1445
-1443
-1442
-1442
-1442
-1441
-1441
-1439
-1440
-1439
-1438
-1438
-1436
-1436
-1435
-1435
-1432
-1432
-1431
-1431
-1432
-1429
-1428
-1428
-1427
-1426
-1426
-1426
-1423
-1423@
-1421
-1423
-1419
-1419
-1419
-1418
-1417
-1416
-1415
-1416
-1414
-1414
-1413
-1412
-1412
-1411
-1410
-1409
-1408
-1407
-1406
-1405
-1406
-1405
-1404
-1403
-1403
-1402
-1400
-1400
-1398
-1398
-1397
-1397
-1396
-1395
-1393
-1394
-1394
-1392
-1393
-1391
-1389
-1389
-1388
-1387
-1385
-1385
-1384
-1384
-1383
-1383
-1382
-1380
-1380
-1379
-1379
-1378
-1376
-1375
-1373
-1374
-1372
-1372
-1371
-1371
-1370
-1370
-1369
-1369
-1368
-1368
-1366
-1366
-1365
-1364
-1362
-1364
-1362
-1360
-1359
-1359
-1359
-1358
-1356
-1357
-1357
-1356
-1354
-1353
-1352
-1351
-1350
-1350
-1350
-1347@
-1347
-1347
-1346
-1347
-1344
-1343
-1344
-1345
-1342
-1342
-1341
-1341
-1339
-1337
-1337
-1336
-1334
-1335
-1334
-1335
-1331
-1333
-1330
-1329
-1330
-1329
-1328
-1326
-1327
-1326
-1324
-1325
-1322
-1323
-1321
-1321
-1319
-1320
-1319
-1317
-1316
-1317
-1315
-1314
-1313
-1313
-1313
-1311
-1309
-1311
-1309
-1307
-1308
-1305
-1305
-1304
-1304
-1303
-1303
-1302
-1301
-1300
-1298
-1299
-1297
-1297
-1295
-1293
-1295
-1294
-1293
-1291
-1291
-1291
-1290
-1288
-1288
-1286
-1286
-1283
-1287
-1283
-1284
-1283
-1282
-1281
-1281
-1279
-1278
-1277
-1278
-1278
-1275
-1275
-1274
-1274@
-1273
-1272
-1271
-1270
-1270
-1269
-1269
-1268
-1265
-1264
-1264
-1264
-1263
-1263
-1262
-1262
-1261
-1260
-1259
-1259
-1257
-1256
-1255
-1255
-1255
-1253
-1253
-1251
-1251
-1249
-1251
-1247
-1248
-1246
-1247
-1245
-1246
-1244
-1243
-1242
-1241
-1239
-1240
-1239
-1239
-1238
-1237
-1238
-1235
-1234
-1236
-1233
-1232
-1233
-1232
-1230
-1228
-1229
-1228
-1226
-1226
-1226
-1224
-1224
-1222
-1221
-1222
-1220
-1218
-1220
-1218
-1217
-1216
-1217
-1215
-1214
-1215
-1213
-1213
-1212
-1211
-1210
-1208
-1209
-1208
-1206
-1205
-1206
-1204
-1203
-1202
-1203
-1202
-1200
-1200
-1199@
-1199
-1198
-1196
-1197
-1195
-1195
-1194
-1193
-1191
-1193
-1191
-1191
-1189
-1189
-1190
-1187
-1187
-1185
-1184
-1183
-1183
-1183
-1182
-1181
-1182
-1180
-1179
-1177
-1178
-1177
-1177
-1175
-1173
-1173
-1173
-1173
-1171
-1170
-1170
-1169
-1168
-1167
-1168
-1167
-1165
-1164
-1163
-1164
-1161
-1160
-1160
-1159
-1158
-1159
-1157
-1158
-1156
-1154
-1155
-1155
-1153
-1153
-1153
-1152
-1151
-1150
-1149
-1148
-1148
-1147
-1147
-1146
-1146
-1143
-1142
-1143
-1141
-1141
-1141
-1138
-1138
-1137
-1138
-1137
-1135
-1136
-1134
-1133
-1134
-1132
-1132
-1130
-1131
-1130
-1129
-1129@
-1126
-1127
-1125
-1126
-1124
-1122
-1122
-1122
-1122
-1120
-1119
-1119
-1120
-1119
-1117
-1115
-1115
-1114
-1114
-1112
-1111
-1112
-1109
-1109
-1110
-1107
-1108
-1106
-1107
-1106
-1103
-1102
-1104
-1103
-1101
-1102
-1101
-1100
-1099
-1098
-1097
-1095
-1096
-1096
-1094
-1093
-1092
-1092
-1093
-1090
-1091
-1090
-1090
-1089
-1086
-1087
-1086
-1086
-1085
-1085
-1083
-1082
-1084
-1081
-1083
-1080
-1079
-1078
-1078
-1078
-1077
-1075
-1074
-1074
-1074
-1073
-1072
-1071
-1072
-1068
-1068
-1070
-1068
-1067
-1066
-1065
-1066
-1065
-1064
-1062
-1062
-1062
-1062
-1061
-1061
-1060@
-1057
-1058
-1057
-1055
-1056
-1054
-1053
-1053
-1052
-1049
-1051
-1050
-1050
-1048
-1049
-1047
-1046
-1045
-1045
-1045
-1042
-1043
-1042
-1042
-1041
-1040
-1039
-1038
-1038
-1038
-1035
-1035
-1034
-1032
-1033
-1032
-1032
-1030
-1029
-1029
-1030
-1028
-1030
-1027
-1028
-1026
-1025
-1025
-1025
-1023
-1024
-1023
-1021
-1019
-1021
-1019
-1021
-1019
-1016
-1018
-1014
-1015
-1016
-1014
-1013
-1012
-1013
-1011
-1010
-1010
-1010
-1009
-1008
-1007
-1007
-1006
-1004
-1005
-1003
-1003
-1004
-1000
-1001
-1000
-997
-999
-998
-999
-995
-996
-995
-994
-993
-994
-993
-993
-991
-990
-991
-991
-989
-989
-987
-986
-986
-986
-984
-983
-981
-981
-982
-982
-980
-979
-981
-978
-977
-976
-977
-976
-975
-973
-974
-973
-973
-971
-970
-971
-971
-970
-967
-969
-966
-967
-967
-964
-964
-963
-963
-961
-962
-960
-960
-959
-959
-959
-957
-957
-956
-955
-954
-953
-953
-954
-953
-950
-951
-950
-949
-949
-948
-947
-946
-946
-945
-945
-945
-944
-942
-942
-941
-939
-941
-939
-938
-937
-938
-937
-935
-935
-937
-934
-934
-934
-932
-931
-931
-932
-930
-931
-929
-928
-927
-926
-927
-925
-924
-925
-922
-922
-922
-920
-920
-921
-919
-919
-917
-918
-917
-916
-915
-916
-914
-915
-914
-913
-911
-911
-912
-910
-909
-908
-906
-907
-905
-905
-905
-905
-902
-903
-904
-902
-900
-900
-900
-898
-899
-898
-897
-896
-897
-894
-895
-895
-894
-893
-892
-892
-891
-890
-890
-889
-887
-888
-887
-886
-887
-884
-884
-884
-884
-884
-882
-881
-880
-880
-880
-878
-878
-878
-877
-874
-875
-876
-873
-873
-872
-871
-871
-873
-871
-869
-869
-868
-867
-868
-865
-866
-866
-863
-865
-863
-862
-864
-861
-861
-861
-858
-860
-856
-858
-856
-855
-855
-854
-855
-854
-852
-852
-853
-852
-850
-850
-850
-847
-847
-846
-847
-847
-845
-845
-846
-844
-843
-843
-842
-842
-842
-839
-839
-840
-838
-839
-836
-838
-836
-834
-835
-833
-833
-834
-833
-832
-832
-831
-830
-830
-828
-827
-828
-826
-827
-826
-825
-826
-823
-824
-823
-823
-821
-822
-821
-819
-819
-819
-818
-819
-818
-817
-816
-815
-815
-814
-813
-812
-813
-812
-810
-809
-810
-809
-809
-809
-806
-805
-807
-806
-806
-806
-805
-803
-801
-803
-803
-803
-801
-799
-800
-799
-798
-798
-798
-797
-797
-796
-794
-793
-795
-793
-792
-791
-792
-791
-790
-790
-789
-788
-788
-788
-786
-785
-785
-785
-785
-783
-785
-781
-782
-781
-781
-780
-780
-780
-778
-777
-776
-777
-778
-775
-776
-775
-775
-776
-774
-773
-772
-773
-772
-770
-771
-770
-770
-768
-768
-767
-767
-766
-765
-764
-765
-764
-762
-763
-761
-761
-761
-760
-760
-759
-759
-759
-756
-757
-756
-755
-755
-752
-753
-755
-753
-752
-753
-751
-750
-749
-749
-748
-748
-747
-747
-746
-745
-746
-745
-744
-744
-743
-742
-741
-742
-741
-740
-741
-738
-739
-739
-737
-737
-736
-735
-736
-735
-734
-735
-733
-733
-731
-731
-732
-729
-730
-729
-731
-729
-728
-728
-728
-726
-726
-725
-725
-723
-723
-722
-721
-721
-720
-721
-721
-719
-719
-719
-719
-718
-717
-717
-715
-715
-714
-713
-715
-713
-713
-714
-712
-711
-711
-711
-709
-709
-709
-708
-707
-708
-707
-706
-705
-705
-705
-705
-703
-702
-703
-700
-702
-700
-699
-700
-699
-698
-698
-697
-698
-696
-697
-696
-694
-695
-693
-692
-694
-693
-691
-692
-691
-692
-691
-690
-688
-689
-690
-688
-688
-687
-687
-687
-684
-684
-684
-686
-683
-682
-683
-682
-682
-680
-679
-679
-679
-677
-677
-677
-677
-675
-677
-675
-675
-673
-675
-673
-673
-672
-673
-671
-671
-671
-669
-668
-670
-668
-667
-666
-667
-665
-667
-665
-664
-664
-663
-664
-664
-661
-661
-662
-660
-661
-658
-658
-659
-658
-659
-659
-656
-654
-654
-655
-655
-654
-656
-653
-653
-651
-650
-651
-650
-650
-649
-648
-649
-649
-647
-647
-646
-645
-645
-643
-643
-642
-644
-643
-644
-642
-641
-642
-641
-640
-640
-638
-638
-638
-637
-638
-636
-636
-636
-635
-634
-635
-632
-633
-633
-631
-632
-631
-632
-630
-629
-630
-629
-629
-628
-626
-627
-626
-625
-625
-624
-626
-625
-624
-622
-622
-623
-622
-620
-622
-620
-620
-620
-621
-617
-620
-619
-618
-618
-617
-617
-616
-615
-614
-613
-614
-614
-612
-612
-612
-609
-610
-609
-608
-609
-608
-607
-607
-607
-606
-606
-606
-603
-604
-603
-604
-603
-602
-603
-602
-601
-602
-601
-601
-600
-601
-599
-598
-598
-598
-597
-595
-597
-595
-597
-595
-595
-595
-592
-592
-592
-593
-591
-591
-591
-590
-590
-590
-590
-589
-588
-588
-587
-587
-586
-587
-585
-584
-583
-583
-583
-583
-580
-582
-580
-581
-581
-579
-580
-580
-577
-578
-579
-578
-578
-578
-578
-576
-577
-576
-576
-575
-574
-574
-574
-573
-572
-571
-571
-570
-570
-570
-571
-569
-568
-568
-567
-566
-567
-567
-566
-566
-565
-565
-565
-565
-563
-563
-563
-562
-561
-561
-561
-559
-561
-560
-560
-558
-556
-558
-556
-556
-557
-556
-555
-555
-553
-554
-554
-553
-553
-552
-551
-550
-551
-552
-549
-550
-549
-548
-547
-549
-548
-546
-547
-545
-546
-545
-546
-545
-543
-545
-543
-541
-542
-543
-541
-541
-542
-540
-540
-540
-538
-538
-537
-538
-538
-537
-537
-537
-534
-535
-536
-535
-535
-533
-534
-533
-532
-532
-532
-530
-531
-531
-530
-531
-529
-530
-529
-529
-527
-528
-528
-525
-525
-525
-525
-524
-523
-523
-523
-523
-522
-523
-522
-520
-522
-520
-521
-520
-519
-519
-520
-518
-518
-518
-517
-517
-516
-516
-515
-514
-514
-515
-514
-512
-513
-512
-513
-512
-512
-511
-510
-512
-511
-510
-507
-509
-508
-507
-507
-506
-507
-507
-505
-504
-505
-505
-504
-504
-503
-502
-502
-501
-500
-500
-500
-501
-500
-498
-498
-498
-497
-498
-497
-496
-497
-496
-496
-495
-495
-494
-493
-493
-493
-492
-492
-491
-490
-491
-490
-490
-489
-490
-490
-489
-488
-489
-487
-488
-489
-488
-487
-487
-484
-486
-484
-485
-483
-484
-483
-483
-483
-482
-483
-482
-482
-481
-480
-479
-478
-479
-478
-477
-478
-477
-476
-477
-477
-477
-476
-475
-475
-474
-473
-474
-474
-471
-472
-472
-472
-471
-471
-471
-470
-470
-469
-469
-471
-469
-466
-469
-467
-467
-466
-468
-466
-464
-465
-464
-465
-465
-464
-464
-464
-463
-462
-460
-461
-461
-462
-461
-461
-460
-458
-459
-458
-457
-458
-456
-456
-457
-456
-456
-455
-455
-454
-455
-454
-453
-453
-453
-453
-452
-452
-450
-452
-450
-450
-449
-449
-450
-449
-447
-448
-448
-448
-446
-446
-446
-446
-447
-445
-444
-444
-446
-442
-443
-443
-443
-442
-442
-442
-440
-442
-440
-441
-440
-440
-440
-438
-439
-438
-439
-438
-437
-436
-437
-436
-435
-435
-435
-434
-435
-433
-433
-434
-433
-432
-433
-431
-431
-431
-431
-431
-431
-430
-430
-429
-430
-429
-429
-430
-428
-428
-427
-426
-426
-427
-425
-425
-426
-425
-425
-423
-423
-423
-422
-422
-423
-422
-422
-420
-421
-421
-420
-419
-418
-418
-419
-419
-419
-417
-417
-418
-416
-416
-414
-414
-415
-415
-414
-415
-415
-413
-414
-413
-414
-413
-413
-412
-411
-411
-411
-410
-410
-409
-408
-409
-410
-407
-409
-407
-407
-406
-406
-406
-405
-404
-402
-404
-403
-404
-404
-404
-402
-404
-402
-402
-402
-401
-401
-399
-402
-401
-400
-399
-399
-398
-397
-400
-398
-397
-397
-397
-396
-396
-394
-396
-395
-393
-394
-393
-393
-393
-394
-393
-392
-392
-391
-390
-390
-391
-391
-392
-390
-390
-388
-388
-388
-388
-388
-387
-387
-387
-386
-385
-385
-384
-387
-383
-384
-383
-384
-383
-382
-381
-381
-382
-382
-382
-381
-381
-380
-380
-380
-379
-378
-379
-379
-378
-376
-378
-377
-377
-376
-376
-376
-376
-376
-375
-375
-376
-375
-375
-375
-372
-372
-373
-374
-371
-373
-373
-371
-370
-370
-372
-371
-370
-370
-368
-368
-368
-370
-368
-366
-368
-367
-368
-367
-366
-365
-366
-365
-363
-365
-364
-364
-364
-362
-363
-363
-362
-361
-362
-363
-360
-361
-362
-361
-360
-359
-359
-359
-361
-359
-358
-358
-358
-357
-357
-356
-354
-357
-359
-356
-355
-354
-354
-354
-354
-354
-353
-355
-354
-352
-351
-352
-350
-352
-351
-351
-350
-349
-350
-348
-349
-348
-349
-350
-348
-348
-348
-347
-346
-347
-347
-346
-346
-346
-346
-345
-344
-344
-344
-344
-343
-344
-342
-343
-341
-342
-342
-344
-341
-341
-341
-341
-339
-339
-340
-339
-338
-339
-339
-337
-339
-339
-339
-337
-336
-336
-336
-336
-336
-335
-334
-336
-334
-336
-336
-335
-334
-334
-333
-333
-332
-334
-333
-332
-332
-330
-331
-330
-331
-331
-330
-329
-330
-328
-329
-327
-328
-328
-327
-327
-327
-326
-326
-326
-326
-325
-326
-327
-325
-324
-324
-324
-324
-323
-323
-322
-324
-321
-323
-320
-321
-322
-320
-320
-319
-319
-320
-319
-320
-320
-319
-319
-317
-318
-317
-316
-318
-316
-316
-316
-317
-315
-314
-313
-315
-314
-314
-314
-316
-311
-313
-313
-312
-313
-312
-312
-310
-313
-311
-310
-311
-311
-311
-311
-311
-310
-310
-310
-309
-310
-309
-308
-308
-307
-305
-308
-306
-306
-306
-306
-307
-306
-304
-304
-306
-306
-304
-304
-304
-303
-303
-304
-303
-303
-305
-304
-302
-303
-302
-301
-300
-298
-300
-299
-301
-300
-298
-298
-299
-298
-298
-297
-298
-297
-298
-299
-296
-296
-296
-296
-295
-295
-295
-293
-296
-293
-294
-294
-293
-294
-294
-292
-292
-292
-293
-292
-293
-292
-291
-292
-292
-291
-290
-290
-289
-291
-289
-290
-289
-288
-289
-290
-288
-288
-286
-287
-289
-287
-287
-287
-286
-286
-285
-285
-286
-285
-286
-285
-285
-286
-284
-285
-284
-283
-283
-283
-281
-281
-281
-281
-281
-281
-280
-279
-278
-279
-279
-280
-278
-277
-280
-279
-279
-279
-278
-278
-277
-276
-278
-277
-279
-277
-276
-276
-276
-276
-277
-275
-274
-276
-274
-275
-274
-272
-272
-272
-273
-272
-273
-272
-270
-271
-271
-271
-272
-273
-270
-270
-270
-269
-269
-270
-267
-269
-269
-268
-267
-267
-267
-267
-268
-267
-266
-268
-266
-266
-266
-267
-264
-266
-266
-264
-264
-265
-263
-263
-262
-263
-265
-264
-263
-262
-260
-261
-261
-262
-260
-261
-260
-261
-260
-260
-259
-259
-258
-257
-259
-259
-258
-258
-257
-256
-257
-257
-257
-256
-255
-256
-256
-256
-256
-255
-253
-254
-253
-254
-254
-254
-253
-253
-254
-253
-253
-252
-252
-253
-251
-251
-251
-251
-252
-251
-251
-249
-250
-250
-249
-249
-250
-250
-249
-249
-248
-248
-249
-249
-249
-247
-248
-247
-246
-247
-245
-247
-246
-245
-245
-245
-245
-246
-245
-245
-244
-244
-243
-243
-243
-244
-242
-242
-241
-242
-243
-243
-241
-242
-242
-242
-240
-240
-240
-240
-240
-238
-240
-239
-238
-239
-237
-237
-239
-237
-237
-237
-237
-237
-237
-235
-236
-235
-236
-235
-235
-237
-236
-232
-234
-234
-234
-234
-233
-233
-233
-232
-233
-233
-235
-230
-235
-225
-240
-219
-251
-203
-280
-145
-996
-1497
-1371
-1454
-1401
-1429
-1413
-1435
-1430
-1450
-1468
-1491
-1494
-1493
-1497
-1514
-1526
-1525
-1528
-1546
-1569
-1578
-1580
-1580
-1570
-1555
-1548
-1544
-1532
-1523
-1518
-1514
-1501
-1484
-1474
-1456
-1436
-1423
-1417
-1406
-1395
-1391
-1386
-1372
-1367
-1367
-1358
-1342
-1341
-1348
-1348
-1346
-1355
-1371
-1381
-1383
-1389
-1398
-1403
-1404
-1414
-1440
-1462
-1479
-1500
-1521
-1529
-1520
-1509
-1507
-1505
-1500
-1499
-1498
-1499
-1496
-1496
-1482
-1464
-1451
-1440
-1432
-1425
-1415
-1404
-1395
-1388
-1368
-1351
-1346
-1338
-1323
-1312
-1310
-1295
-1278
-1271
-1262
-1246
-1226
-1215
-1203
-1189
-1177
-1165
-1157
-1147
-1133
-1121
-1120
-1121
-1108
-1096
-1096
-1086
-1071
-1070
-1084
-1083
-1075
-1081
-1092
-1098
-1098
-1100
-1107
-1110
-1115
-1131
-1147
-1150
-1144
-1146
-1154
-1155
-1148
-1148
-1151
-1149
-1154
-1166
-1170
-1159
-1150
-1147
-1139
-1125
-1117
-1118
-1116
-1111
-1110
-1111
-1098
-1069
-1044
-1031
-1018
-991
-966
-963
-959
-938
-918
-906
-877
-838
-813
-807
-792
-766
-750
-741
-723
-703
-683
-667
-651
-646
-646
-641
-636
-636
-633
-618
-601
-600
-596
-589
-580
-578
-589
-594
-588
-584
-580
-577
-567
-560
-553
-545
-543
-543
-544
-538
-524
-498
-476
-464
-468
-478
-494
-514
-528
-536
-526
-508
-475
-429
-366
-282
-190
-102
-36
5
20
22
7
-26
-65
-119
-214
-369
-570
-817
-1093
-1378
-1650
-1912
-2148
-2340
-2502
-2648
-2770
-2858
-2912
-2939
-2921
-2867
-2795
-2728
-2661
-2583
-2501
-2412
-2312
-2195
-2064
-1920
-1768
-1622
-1482
-1359
-1248
-1131
-1002
-872
-745
-620
-499
-389
-306
-245
-196
-163
-138
-127
-123
-128
-129
-136
-155
-182
-196
-205
-220
-235
-242
-247
-269
-286
-297
-308
-315
-317
-328
-347
-369
-392
-415
-445
-481
-520
-551
-570
-584
-607
-629
-647
-671
-694
-706
-721
-741
-765
-780
-779
-785
-800
-817
-829
-833
-841
-840
-827
-810
-785
-757
-729
-697
-655
-623
-597
-569
-528
-489
-463
-440
-409
-373
-353
-353
-357
-345
-336
-347
-369
-375
-370
-380
-391
-389
-392
-423
-458
-477
-497
-536
-575
-596
-619
-645
-664
-683
-701
-716
-731
-745
-756
-764
-763
-760
-752
-749
-744
-733
-730
-730
-725
-722
-722
-728
-724
-718
-711
-706
-709
-710
-700
-691
-692
-691
-687
-687
-693
-694
-687
-679
-680
-682
-671
-659
-652
-645
-639
-639
-638
-630
-619
-611
-604
-594
-582
-571
-563
-553
-542
-540
-538
-527
-509
-504
-508
-498
-490
-491
-490
-479
-477
-486
-490
-486
-489
-505
-513
-510
-509
-519
-528
-529
-530
-531
-540
-543
-543
-534
-526
-529
-530
-522
-511
-509
-510
-503
-493
-497
-499
-492
-482
-477
-470
-460
-454
-451
-451
-447
-445
-441
-434
-419
-417
-422
-419
-414
-419
-424
-420
-410
-414
-421
-420
-410
-403
-415
-426
-424
-413
-409
-408
-406
-401
-396
-392
-384
-373
-371
-377
-373
-360
-348
-358
-363
-355
-349
-342
-340
-336
-334
-321
-308
-312
-312
-303
-288
-286
-293
-289
-275
-266
-268
-267
-254
-248
-257
-258
-249
-244
-247
-256
-252
-250
-261
-265
-255
-246
-254
-269
-278
-275
-283
-300
-312
-315
-317
-321
-318
-310
-302
-300
-303
-300
-297
-305
-306
-297
-286
-282
-279
-274
-275
-273
-263
-258
-266
-264
-250
-243
-249
-251
-244
-240
-249
-252
-240
-231
-238
-245
-245
-241
-245
-261
-277
-282
-283
-284
-288
-294
-295
-297
-308
-327
-345
-358
-364
-380
-405
-413
-406
-408
-433
-448
-441
-435
-452
-472
-477
-464
-454
-461
-457
-435
-417
-415
-413
-400
-398
-409
-414
-406
-399
-394
-401
-408
-401
-385
-387
-401
-396
-382
-379
-389
-394
-395
-402
-419
-436
-432
-428
-439
-446
-439
-431
-431
-429
-424
-418
-412
-400
-389
-375
-361
-348
-339
-327
-306
-295
-297
-299
-286
-272
-269
-265
-257
-247
-240
-228
-223
-225
-227
-225
-224
-218
-211
-212
-216
-216
-215
-227
-239
-249
-258
-271
-279
-287
-301
-308
-319
-337
-343
-342
-348
-349
-342
-334
-333
-329
-330
-342
-355
-362
-361
-365
-368
-362
-340
-325
-328
-337
-340
-351
-364
-370
-370
-370
-378
-389
-388
-383
-390
-408
-425
-427
-430
-435
-439
-444
-447
-447
-449
-445
-444
-442
-445
-438
-412
-392
-381
-370
-351
-328
-316
-309
-297
-277
-263
-252
-228
-197
-176
-172
-167
-142
-126
-124
-127
-114
-92
-75
-72
-67
-45
-33
-44
-52
-41
-38
-40
-33
-19
-11
-6
3
6
7
14
21
24
32
48
69
69
69
72
76
77
75
77
87
94
95
103
113
109
109
114
117
111
108
110
107
98
97
103
92
71
59
48
25
-4
-32
-52
-73
-96
-119
-142
-163
-193
-225
-251
-270
-296
-315
-324
-331
-344
-362
-373
-383
-388
-402
-411
-418
-422
-424
-420
-415
-414
-423
-434
-436
-433
-429
-425
-428
-422
-411
-398
-397
-402
-396
-386
-381
-376
-362
-350
-335
-320
-305
-294
-282
-271
-263
-254
-233
-212
-202
-187
-159
-131
-109
-102
-102
-93
-72
-58
-48
-34
-23
-11
5
25
27
25
26
29
27
38
56
66
79
96
108
108
110
116
118
121
130
148
165
174
175
187
198
192
187
188
192
190
195
214
220
212
198
189
179
169
157
147
140
142
145
132
110
93
78
59
44
39
44
42
33
31
30
25
16
13
6
0
-1
7
16
26
42
52
60
72
86
85
78
86
104
123
134
141
150
158
174
189
185
178
191
208
208
208
225
238
233
228
238
244
244
243
249
247
241
237
241
250
248
245
238
239
248
250
242
239
242
238
231
226
222
209
191
180
178
167
150
145
132
119
112
103
94
91
84
78
69
60
49
32
18
5
-1
0
-1
-8
-15
-11
-11
-22
-22
-19
-18
-15
2
25
35
42
57
70
77
84
86
97
117
138
162
190
209
225
246
268
287
302
322
340
358
375
394
405
415
423
429
433
435
432
423
416
409
406
406
409
407
404
397
393
392
392
383
371
374
382
378
370
381
395
391
386
398
409
406
410
418
417
414
415
411
401
408
419
411
398
400
398
376
361
359
346
322
306
305
297
280
265
253
242
221
201
187
180
167
152
144
132
116
104
93
80
64
48
43
46
40
30
27
21
17
27
38
35
23
27
44
54
53
50
55
61
69
79
87
92
93
99
114
127
130
142
148
153
162
178
184
176
169
177
187
184
174
171
176
165
149
135
124
105
78
63
43
31
8
-18
-32
-39
-64
-91
-111
-121
-139
-160
-178
-191
-195
-200
-212
-227
-222
-210
-212
-219
-218
-211
-208
-210
-207
-191
-177
-176
-179
-168
-145
-133
-140
-144
-134
-132
-131
-129
-127
-121
-105
-96
-96
-96
-86
-86
-104
-121
-114
-102
-106
-109
-101
-86
-70
-65
-63
-52
-36
-26
-19
-2
9
13
14
22
33
35
31
34
37
40
40
40
38
40
41
37
29
28
34
31
30
33
40
39
37
39
40
35
21
18
27
38
35
32
50
67
64
49
52
63
68
69
80
98
108
118
135
155
163
167
174
177
183
202
212
209
214
229
231
211
205
211
205
186
177
181
179
164
145
136
134
126
116
111
108
107
106
109
110
104
103
104
105
110
115
109
105
114
122
125
126
127
128
138
150
149
145
156
173
181
179
190
197
191
184
188
190
193
186
185
195
199
187
173
172
177
168
154
156
160
164
156
146
145
150
146
128
119
130
139
125
120
131
137
120
98
95
92
77
61
62
69
64
52
47
45
25
2
-6
-14
-27
-30
-26
-26
-30
-24
-24
-29
-33
-25
-19
-14
-5
7
20
30
34
38
44
54
60
61
59
63
66
67
67
63
59
55
57
68
67
58
56
55
44
34
36
36
40
50
63
72
76
85
91
89
78
76
81
78
81
91
95
90
90
96
94
87
80
80
86
89
95
101
110
110
106
105
102
98
96
101
103
102
102
110
117
107
98
104
113
114
116
116
118
115
116
114
108
100
96
96
108
119
124
124
130
140
140
144
152
166
188
202
217
231
249
262
264
262
258
256
261
283
304
312
313
319
331
333
326
321
328
323
311
308
319
316
293
268
253
238
223
203
176
157
144
130
117
100
83
61
36
24
20
4
-16
-25
-24
-21
-30
-44
-47
-46
-47
-53
-48
-30
-11
1
19
42
59
68
70
80
93
102
101
111
131
146
147
146
148
146
142
136
134
133
137
142
147
146
136
126
124
122
112
107
109
109
110
111
105
99
104
109
102
97
108
121
123
122
121
129
126
123
117
108
102
95
90
86
85
83
83
77
60
47
39
32
18
6
8
5
-9
-18
-22
-29
-45
-63
-78
-85
-88
-97
-103
-95
-90
-98
-98
-84
-73
-78
-78
-60
-37
-29
-23
-6
17
29
37
56
79
95
95
100
109
112
110
110
107
97
94
97
103
101
96
92
85
79
69
51
31
25
26
25
23
21
24
21
12
-1
-6
-10
-26
-38
-31
-19
-23
-31
-18
-15
-30
-41
-38
-33
-27
-18
-14
-5
6
14
10
8
16
21
28
43
65
82
86
88
91
95
96
102
107
106
112
129
146
144
137
148
150
142
134
139
146
148
152
159
161
158
159
156
146
136
132
130
128
129
135
133
124
120
118
108
89
85
84
69
55
56
63
59
48
41
37
32
21
13
8
15
15
11
14
19
11
-4
-4
5
9
8
11
15
20
26
25
19
21
30
38
48
67
77
79
87
97
97
91
87
82
77
72
77
83
80
79
77
73
63
52
44
36
32
30
34
30
24
20
20
14
4
-2
4
7
1
-5
-1
12
4
1
10
24
25
25
31
48
58
59
61
67
78
88
92
97
106
115
125
129
133
144
142
131
133
149
150
145
139
147
158
157
146
148
159
165
158
163
178
180
174
182
199
208
200
189
193
198
205
208
207
206
201
194
191
185
177
169
170
184
196
196
192
181
169
161
161
160
160
169
178
182
183
190
193
187
184
190
203
212
218
226
239
248
256
251
245
251
260
262
261
263
269
273
277
271
266
266
265
259
257
257
251
237
225
217
199
182
169
141
110
98
97
80
59
49
42
16
-15
-29
-47
-76
-93
-88
-92
-109
-120
-118
-115
-127
-135
-135
-131
-126
-121
-111
-113
-127
-133
-126
-124
-135
-143
-144
-138
-136
-139
-145
-152
-153
-148
-139
-133
-131
-125
-116
-109
-102
-87
-73
-68
-62
-37
-12
-8
-4
18
40
46
53
75
98
113
121
137
169
197
200
209
234
251
256
262
276
281
275
270
274
277
272
261
246
233
225
215
194
181
164
143
132
127
113
102
94
81
65
57
46
34
21
10
9
2
-6
-5
5
2
-15
-16
9
23
19
16
31
53
59
64
83
99
107
118
140
159
168
172
184
199
206
204
212
230
234
230
236
247
250
254
271
274
263
262
271
268
256
259
269
270
271
272
281
279
263
252
257
256
246
243
258
267
259
251
255
254
240
233
244
254
254
251
247
249
251
243
230
229
245
253
247
243
247
245
232
217
216
218
219
219
226
239
242
233
219
213
211
205
192
193
198
199
196
183
172
165
154
133
119
115
112
103
90
78
75
76
66
52
47
38
27
24
29
27
10
-6
4
19
16
3
0
15
23
22
21
26
35
39
45
52
55
57
60
66
70
67
66
74
84
93
92
92
105
113
120
128
136
147
159
164
166
171
180
182
184
190
207
220
224
229
242
253
254
261
277
284
288
294
301
302
301
303
304
298
299
303
302
301
299
298
296
286
273
269
266
261
255
251
254
255
254
247
246
242
238
239
247
251
249
259
273
276
277
278
278
273
273
274
270
266
273
283
280
267
262
267
261
243
237
235
230
222
225
231
224
212
209
208
196
190
184
171
163
167
163
143
122
115
110
98
91
91
85
72
62
53
43
20
-4
-7
-8
-18
-28
-38
-56
-77
-89
-99
-126
-158
-172
-175
-189
-201
-210
-222
-235
-247
-253
-266
-284
-292
-292
-299
-312
-315
-308
-306
-311
-301
-286
-282
-272
-252
-234
-219
-211
-197
-179
-160
-142
-121
-107
-99
-91
-74
-56
-48
-46
-46
-41
-38
-29
-25
-27
-24
-21
-17
-10
-1
2
-5
-7
0
5
8
19
33
47
61
79
94
102
112
123
132
141
148
160
171
181
188
201
211
217
223
233
242
246
256
267
271
267
271
280
284
278
278
282
291
288
276
268
271
267
253
248
248
243
236
238
237
232
229
232
223
211
207
206
198
190
196
206
205
195
194
192
181
172
167
163
149
143
148
148
140
130
125
127
125
112
105
107
111
106
96
78
70
71
72
63
65
81
78
70
77
86
73
52
53
63
67
65
68
72
71
70
70
76
69
59
55
63
70
71
77
86
94
106
109
99
87
86
88
79
74
79
78
79
85
87
78
68
60
49
35
27
21
5
-9
-16
-24
-43
-65
-82
-94
-107
-119
-127
-136
-142
-146
-146
-142
-141
-152
-159
-155
-146
-143
-153
-162
-159
-147
-144
-150
-156
-158
-159
-160
-158
-154
-161
-172
-172
-163
-160
-168
-183
-179
-163
-152
-150
-149
-144
-138
-128
-108
-92
-82
-62
-34
-11
2
20
37
47
59
83
108
127
142
157
177
196
207
212
219
228
236
254
267
266
265
279
292
288
281
274
278
280
275
271
264
259
253
248
242
236
225
217
212
211
207
202
185
171
166
165
145
121
110
105
94
78
66
59
52
35
25
16
5
-16
-34
-40
-42
-54
-77
-102
-119
-125
-138
-159
-177
-178
-177
-187
-191
-184
-179
-186
-186
-169
-159
-165
-167
-148
-128
-115
-105
-97
-78
-58
-41
-17
-1
11
31
55
70
89
116
132
143
156
176
182
176
178
187
191
191
194
203
197
182
172
167
153
125
111
104
88
61
39
19
-14
-59
-101
-131
-167
-210
-224
-212
-199
-192
-168
-123
-72
-16
67
160
249
338
442
536
609
672
744
820
897
980
1068
1146
1202
1249
1295
1325
1334
1325
1326
1331
1320
1293
1261
1212
1136
1038
939
835
712
580
451
326
205
80
-44
-164
-284
-398
-492
-579
-662
-733
-787
-828
-859
-875
-872
-860
-848
-822
-782
-737
-698
-657
-611
-568
-527
-475
-422
-378
-342
-307
-264
-220
-180
-147
-115
-82
-57
-38
-17
-5
-11
-19
-22
-36
-62
-83
-96
-126
-160
-182
-204
-241
-274
-291
-308
-335
-352
-355
-350
-354
-359
-345
-319
-287
-254
-216
-172
-121
-68
-20
27
84
142
192
246
324
407
468
525
583
638
676
699
727
760
777
780
786
804
808
800
798
799
782
764
753
737
710
692
688
671
636
614
597
569
531
504
481
441
395
360
332
301
263
219
190
163
126
78
38
-6
-51
-88
-114
-145
-178
-206
-220
-236
-254
-278
-306
-327
-334
-334
-337
-336
-330
-318
-303
-287
-273
-252
-227
-203
-169
-131
-92
-60
-26
12
48
85
124
158
182
208
227
243
253
257
263
266
270
269
267
261
243
231
216
198
175
150
134
122
97
65
42
21
-8
-41
-65
-84
-109
-130
-145
-161
-184
-206
-223
-237
-249
-248
-244
-250
-261
-251
-236
-229
-227
-216
-196
-170
-148
-124
-98
-74
-53
-31
-8
16
35
38
42
59
80
88
88
92
101
109
116
123
118
109
111
122
120
113
116
119
112
111
117
115
100
100
110
112
100
84
88
101
101
98
107
124
137
145
155
164
163
168
188
209
221
233
255
273
279
283
300
320
326
327
339
352
357
361
368
369
363
361
367
374
371
366
372
384
391
387
385
385
381
372
376
376
373
371
376
372
356
343
340
330
306
288
288
282
260
247
244
227
195
169
152
133
111
90
76
65
53
39
21
-9
-40
-58
-70
-93
-115
-127
-139
-160
-175
-181
-193
-217
-240
-240
-237
-253
-279
-286
-291
-304
-315
-321
-320
-322
-327
-328
-321
-313
-311
-315
-316
-311
-302
-301
-302
-302
-297
-288
-274
-265
-255
-247
-246
-241
-234
-226
-227
-229
-224
-221
-221
-224
-234
-251
-269
-286
-301
-322
-348
-369
-391
-415
-444
-467
-487
-512
-543
-564
-585
-603
-616
-625
-635
-644
-648
-658
-671
-675
-671
-669
-663
-654
-651
-648
-635
-623
-617
-608
-590
-559
-533
-510
-488
-461
-429
-405
-372
-337
-300
-264
-223
-175
-131
-89
-42
-1
32
73
115
145
161
181
213
238
250
256
266
279
285
278
275
271
262
246
238
233
223
197
176
173
173
158
137
124
114
103
89
82
81
75
64
69
79
66
51
57
70
74
71
76
82
71
61
63
71
68
68
84
96
95
96
101
93
88
104
124
132
148
182
217
235
251
276
301
322
349
382
403
421
448
484
506
510
521
540
553
560
580
603
611
609
615
624
628
619
612
613
626
632
639
633
624
614
606
596
581
567
557
552
545
537
528
519
500
488
479
463
441
423
413
405
390
378
366
360
354
345
336
320
303
296
301
294
278
266
263
257
243
237
226
213
206
206
204
196
187
175
165
163
160
145
128
121
111
90
75
60
39
17
10
-4
-29
-57
-61
-70
-88
-101
-106
-102
-107
-110
-108
-99
-80
-58
-30
14
75
130
170
203
236
257
267
290
331
370
388
396
406
412
398
375
364
351
320
279
246
233
224
208
187
165
147
124
105
84
56
36
17
-2
-16
-30
-43
-62
-69
-70
-79
-97
-113
-121
-129
-133
-131
-136
-137
-138
-135
-134
-121
-107
-101
-90
-68
-41
-27
-12
13
31
55
98
143
168
194
231
261
292
324
362
395
419
449
484
524
547
552
560
578
585
575
574
579
558
535
528
525
506
477
461
452
437
417
398
379
356
339
333
321
297
278
272
269
255
255
264
269
264
266
274
265
258
260
266
260
248
248
247
230
216
206
195
176
152
131
113
92
68
44
16
-9
-18
-25
-39
-47
-52
-62
-77
-88
-95
-109
-117
-116
-116
-118
-113
-102
-101
-106
-99
-75
-61
-61
-56
-41
-25
-24
-21
-1
18
26
45
73
84
82
90
107
112
110
120
136
151
166
178
182
179
185
189
187
186
181
177
185
193
185
184
189
184
170
166
168
160
151
150
155
157
154
152
147
147
145
140
132
137
145
150
146
147
151
154
155
158
164
173
183
198
203
210
214
212
215
214
216
223
232
244
255
263
264
256
248
247
244
245
243
246
251
244
235
222
217
202
181
168
163
152
138
131
125
110
96
93
94
86
73
65
63
73
78
68
65
78
92
94
95
104
110
118
133
143
144
137
135
134
127
120
111
100
93
90
81
64
47
27
12
-1
-19
-31
-39
-45
-54
-54
-59
-76
-95
-105
-109
-123
-136
-134
-128
-126
-121
-115
-123
-134
-132
-122
-120
-121
-119
-116
-114
-113
-97
-94
-111
-122
-111
-101
-102
-103
-99
-97
-97
-94
-91
-95
-94
-86
-77
-63
-47
-36
-30
-20
-10
1
4
11
21
35
53
65
74
90
104
104
99
103
111
107
102
107
114
114
111
107
100
94
85
74
59
42
27
7
-13
-37
-58
-74
-91
-109
-124
-139
-155
-168
-178
-187
-200
-210
-226
-236
-240
-246
-258
-268
-268
-270
-273
-273
-275
-281
-292
-290
-283
-277
-269
-261
-245
-230
-215
-202
-198
-195
-187
-169
-152
-133
-109
-85
-66
-43
-19
2
13
21
34
54
77
89
94
103
112
118
120
124
122
113
103
111
119
111
98
93
92
86
82
82
75
67
66
75
80
75
68
63
58
54
54
59
66
75
82
99
112
105
100
107
114
115
118
124
135
139
134
132
125
112
100
90
85
72
55
47
42
37
22
6
-13
-23
-24
-26
-33
-46
-51
-49
-53
-57
-61
-62
-55
-46
-35
-25
-18
-10
-3
7
19
25
37
47
52
56
68
85
98
106
113
127
138
146
161
176
188
206
226
240
253
265
279
294
306
322
332
334
345
356
361
365
371
380
377
373
378
381
376
367
366
368
368
366
361
362
356
344
335
326
315
305
299
290
288
281
276
269
264
251
235
236
241
234
223
224
231
235
233
238
251
265
272
282
302
318
323
326
350
377
395
397
398
408
414
410
407
408
416
427
452
479
518
567
628
674
690
674
639
607
582
577
587
592
560
463
306
107
-120
-351
-563
-758
-949
-1130
-1288
-1427
-1558
-1652
-1706
-1726
-1713
-1671
-1603
-1519
-1433
-1346
-1254
-1147
-1031
-910
-786
-654
-509
-368
-233
-116
-10
84
171
262
354
433
484
522
560
589
593
583
571
556
545
531
509
484
456
434
417
409
403
397
395
400
411
421
437
450
449
450
460
466
466
460
455
447
437
433
419
398
384
383
374
352
332
306
271
227
194
166
139
111
86
68
57
45
24
6
4
7
6
2
7
16
24
35
47
62
78
94
113
125
134
139
133
116
93
79
70
60
42
28
14
-6
-38
-73
-113
-161
-203
-235
-270
-321
-363
-395
-435
-482
-524
-551
-584
-615
-634
-641
-655
-678
-692
-692
-692
-697
-689
-667
-654
-638
-604
-561
-536
-521
-484
-437
-403
-369
-332
-296
-257
-214
-177
-147
-120
-89
-53
-25
0
20
41
63
89
115
137
151
163
178
189
193
194
203
207
199
198
196
179
160
151
139
121
102
86
67
46
24
3
-27
-55
-81
-104
-131
-154
-177
-198
-215
-225
-231
-237
-239
-242
-244
-234
-217
-198
-181
-165
-142
-109
-79
-58
-42
-23
0
24
53
82
104
125
151
172
184
191
194
199
199
202
207
208
208
208
210
207
196
186
186
194
190
185
191
200
199
196
200
200
188
183
193
201
196
183
185
190
180
170
169
167
155
143
135
126
113
97
85
72
62
54
47
42
41
37
35
38
40
35
33
39
42
35
32
43
54
53
63
87
96
93
89
83
74
67
62
57
58
63
61
52
48
48
36
25
26
22
10
2
11
17
8
-2
-3
1
2
-6
-8
-12
-15
-11
-14
-28
-32
-34
-32
-26
-18
-23
-40
-48
-50
-63
-81
-84
-88
-90
-94
-93
-96
-100
-104
-115
-124
-125
-125
-133
-136
-129
-121
-113
-100
-99
-108
-101
-87
-86
-94
-89
-76
-65
-65
-61
-57
-63
-73
-74
-71
-80
-91
-94
-90
-94
-101
-103
-109
-112
-116
-119
-121
-121
-122
-126
-134
-133
-134
-140
-140
-128
-123
-122
-109
-97
-86
-70
-55
-42
-27
-6
18
42
65
82
95
113
135
152
160
161
171
184
190
190
191
193
191
190
186
180
170
159
152
149
143
142
136
131
122
110
101
86
71
63
56
49
46
49
43
28
15
6
-11
-23
-19
-16
-23
-25
-14
-1
-8
-22
-27
-24
-32
-45
-44
-29
-31
-43
-37
-28
-37
-47
-47
-48
-53
-52
-46
-43
-42
-43
-44
-41
-36
-38
-39
-30
-25
-24
-19
-9
-6
-5
0
5
10
23
34
40
47
59
80
89
92
90
89
96
105
111
114
116
119
130
135
136
125
123
118
107
100
101
99
80
64
64
62
48
29
17
14
8
-3
-8
-4
2
-6
-15
-8
12
19
14
16
26
34
30
21
21
28
31
30
35
46
42
31
30
32
34
27
29
35
40
35
23
22
29
18
8
10
13
4
-3
-3
-5
-8
-5
2
5
8
14
15
10
4
0
-1
1
8
14
16
16
20
21
16
13
12
18
29
40
52
65
74
79
85
97
101
105
118
131
138
138
139
140
130
113
96
91
87
78
68
63
58
48
19
0
-10
-31
-55
-70
-73
-73
-90
-103
-108
-112
-130
-152
-156
-156
-162
-164
-151
-142
-145
-144
-134
-127
-136
-143
-133
-118
-109
-96
-80
-72
-66
-55
-52
-63
-71
-63
-47
-45
-48
-44
-34
-32
-39
-43
-39
-38
-32
-25
-22
-15
-3
5
5
17
34
37
31
38
58
72
82
93
105
115
123
130
134
127
119
111
117
130
132
123
117
120
127
126
112
99
92
92
93
91
94
95
91
85
78
78
80
69
63
77
95
90
77
77
78
68
59
61
72
81
80
76
77
77
70
65
69
64
52
54
66
65
50
43
46
41
29
25
26
23
18
18
26
34
40
38
38
40
41
45
46
50
60
69
68
68
76
78
65
48
48
55
50
48
48
54
54
52
50
47
44
37
36
46
48
39
27
27
32
28
17
9
6
-1
-5
-7
-21
-38
-44
-40
-49
-64
-73
-75
-74
-82
-90
-91
-94
-105
-124
-133
-141
-152
-171
-180
-185
-198
-219
-240
-255
-269
-284
-308
-322
-319
-321
-335
-339
-326
-324
-333
-331
-323
-317
-312
-297
-278
-259
-240
-217
-196
-179
-163
-142
-113
-81
-57
-34
-12
11
27
34
42
46
52
64
77
78
82
93
98
91
87
90
82
66
62
69
68
60
60
67
78
83
82
80
85
89
89
102
115
124
132
145
154
164
174
178
183
192
199
197
195
198
200
200
196
192
181
186
191
186
180
185
187
179
170
162
160
160
155
155
166
176
171
170
179
174
159
159
167
171
176
185
188
186
195
201
190
182
189
191
182
181
192
198
197
189
184
183
180
176
175
176
185
194
200
199
196
193
196
195
197
201
207
213
215
216
210
206
206
213
218
220
223
226
232
237
232
226
225
217
204
202
198
191
187
185
176
158
146
138
124
102
80
59
42
27
15
-4
-30
-46
-58
-78
-102
-122
-136
-145
-155
-165
-177
-192
-208
-221
-238
-258
-278
-294
-308
-323
-333
-344
-355
-373
-392
-401
-405
-415
-426
-425
-414
-401
-392
-382
-374
-362
-340
-314
-302
-288
-255
-219
-197
-174
-139
-110
-92
-70
-31
6
25
39
63
99
127
147
168
183
195
214
238
254
255
259
266
274
284
295
295
289
296
316
326
311
299
298
301
286
268
264
254
240
236
239
228
202
189
191
181
156
137
136
135
130
124
121
125
122
116
121
134
129
117
123
143
145
139
141
144
144
149
155
150
142
136
137
131
126
125
123
122
123
124
115
102
93
87
82
72
54
41
37
22
-6
-28
-45
-63
-83
-101
-111
-128
-149
-161
-164
-179
-202
-214
-212
-210
-217
-221
-218
-213
-215
-219
-215
-208
-210
-209
-201
-185
-184
-192
-189
-182
-189
-198
-190
-174
-165
-156
-135
-106
-84
-78
-75
-68
-46
-16
15
37
64
103
128
141
158
177
180
177
190
231
281
320
355
387
391
366
337
322
321
316
299
266
217
160
97
36
-25
-87
-156
-222
-267
-313
-375
-445
-501
-555
-617
-677
-714
-741
-770
-792
-810
-836
-871
-898
-918
-925
-925
-923
-911
-890
-862
-831
-793
-747
-703
-652
-596
-540
-487
-421
-347
-281
-222
-157
-91
-30
17
68
125
180
234
294
351
395
425
465
499
524
548
569
579
588
600
615
621
608
589
576
560
532
494
464
443
419
380
344
311
274
230
186
149
114
81
52
24
0
-34
-70
-93
-110
-133
-159
-172
-183
-196
-207
-222
-243
-268
-285
-296
-315
-337
-345
-344
-352
-370
-376
-377
-397
-423
-430
-435
-458
-475
-467
-460
-471
-474
-460
-447
-449
-443
-421
-402
-394
-383
-357
-327
-317
-310
-292
-275
-274
-279
-270
-266
-271
-270
-260
-254
-254
-254
-251
-238
-225
-223
-219
-200
-174
-154
-138
-124
-107
-85
-63
-42
-19
4
23
39
59
79
101
118
131
144
159
178
197
209
218
239
248
250
258
263
257
246
256
273
280
279
286
303
310
301
296
300
302
295
303
319
317
316
329
338
325
312
317
326
323
316
322
329
329
319
307
294
282
272
262
258
252
247
243
229
209
197
187
168
149
146
147
138
121
115
119
111
94
84
86
81
68
73
81
77
62
56
66
69
56
53
48
47
46
46
48
41
34
28
28
22
9
-8
-13
-14
-20
-24
-38
-53
-71
-83
-89
-97
-109
-127
-143
-152
-160
-182
-204
-221
-238
-255
-272
-280
-288
-295
-303
-309
-311
-320
-335
-347
-351
-352
-354
-354
-357
-358
-352
-345
-348
-349
-344
-345
-345
-336
-329
-329
-330
-320
-309
-302
-290
-281
-280
-264
-241
-230
-222
-205
-189
-177
-159
-139
-118
-107
-93
-76
-57
-39
-35
-37
-34
-23
-23
-28
-30
-31
-30
-21
-20
-33
-45
-43
-47
-58
-63
-60
-60
-60
-49
-38
-41
-44
-37
-35
-44
-47
-43
-35
-28
-27
-24
-16
-12
-18
-15
-6
-7
-5
12
29
32
31
36
36
30
27
29
33
38
44
56
57
56
52
58
62
58
61
78
101
111
127
148
159
160
163
167
170
170
167
164
161
170
167
157
149
151
150
137
130
132
134
132
138
139
128
121
129
129
125
122
127
135
131
131
140
140
134
126
128
132
130
133
136
132
118
107
99
86
67
52
46
41
33
31
24
8
-11
-23
-32
-47
-59
-54
-54
-62
-69
-68
-71
-85
-99
-105
-101
-93
-95
-102
-98
-87
-87
-91
-93
-88
-87
-88
-86
-80
-75
-85
-100
-103
-106
-114
-125
-131
-135
-137
-139
-135
-133
-138
-141
-133
-121
-114
-108
-97
-88
-75
-59
-37
-28
-23
-10
17
36
43
59
85
104
118
143
170
185
196
215
237
254
274
297
308
311
325
339
344
344
346
350
356
362
369
370
367
370
366
366
367
368
366
362
356
356
362
363
356
358
365
373
380
388
402
405
402
405
414
423
433
437
444
451
462
459
448
447
454
462
475
482
487
485
471
440
408
369
326
290
264
241
209
178
133
78
23
-28
-82
-137
-180
-221
-269
-307
-337
-377
-425
-466
-506
-553
-597
-627
-644
-660
-680
-689
-687
-689
-696
-693
-678
-664
-658
-646
-617
-591
-576
-553
-524
-493
-466
-433
-389
-347
-316
-292
-258
-229
-207
-192
-179
-167
-151
-125
-104
-91
-82
-68
-58
-53
-46
-45
-46
-42
-27
-17
-17
-11
0
0
-10
-13
-14
-22
-34
-44
-48
-55
-65
-71
-75
-86
-96
-102
-103
-105
-104
-102
-101
-103
-92
-81
-85
-91
-79
-63
-60
-53
-33
-19
-13
-9
5
19
24
26
34
49
62
68
73
85
91
94
97
100
100
103
110
106
104
109
108
97
98
106
104
95
98
106
103
95
95
96
97
97
92
101
105
107
104
103
109
102
88
75
77
76
54
32
25
26
1
-33
-43
-45
-59
-91
-107
-107
-113
-128
-134
-134
-144
-150
-155
-165
-177
-181
-177
-180
-174
-156
-140
-136
-132
-122
-104
-93
-90
-77
-50
-32
-32
-22
2
3
-2
8
27
44
58
72
82
91
100
107
113
117
116
122
136
147
146
143
149
153
142
128
123
119
116
120
125
134
140
143
138
134
126
115
109
110
114
114
123
129
133
128
118
107
101
96
91
92
95
95
103
103
92
74
65
63
62
51
49
52
53
46
33
21
11
3
1
5
5
2
-4
-9
-16
-34
-53
-69
-80
-89
-88
-84
-88
-99
-107
-106
-107
-118
-129
-122
-106
-94
-91
-78
-54
-45
-37
-24
-9
-1
15
42
68
87
109
133
148
158
163
172
182
193
211
222
230
238
247
247
246
253
260
256
251
256
270
274
268
261
259
255
239
222
209
194
169
150
144
136
119
96
81
69
54
29
3
-21
-38
-54
-71
-94
-114
-128
-143
-161
-181
-194
-208
-220
-229
-235
-245
-251
-251
-242
-242
-240
-235
-227
-216
-198
-183
-165
-143
-124
-110
-89
-65
-41
-18
10
37
55
67
84
96
99
110
129
142
148
158
170
182
188
192
194
194
194
195
190
187
179
174
174
168
156
144
129
119
103
83
65
58
49
31
14
12
18
8
-16
-32
-38
-51
-81
-105
-106
-103
-117
-139
-152
-156
-171
-191
-210
-222
-232
-238
-245
-258
-272
-274
-276
-294
-304
-305
-307
-320
-325
-310
-318
-339
-338
-318
-311
-310
-299
-279
-266
-260
-245
-229
-225
-230
-220
-208
-201
-195
-189
-183
-180
-180
-174
-171
-179
-176
-160
-151
-143
-127
-109
-101
-98
-88
-80
-78
-74
-65
-55
-43
-41
-41
-34
-26
-28
-29
-22
-17
-18
-16
-17
-18
-20
-20
-17
-8
2
7
6
6
12
19
26
34
47
56
60
67
78
85
92
100
106
114
123
133
144
146
148
159
170
169
162
176
189
184
177
188
200
196
182
175
185
187
187
186
185
180
178
178
175
168
162
161
158
153
156
159
147
126
116
118
114
102
86
84
83
75
66
66
59
44
40
48
50
42
43
55
59
54
51
45
40
30
31
35
33
32
38
44
36
29
30
38
39
36
44
55
57
51
46
43
34
26
25
21
17
11
9
6
-10
-33
-52
-60
-72
-91
-111
-129
-159
-189
-189
-163
-130
-90
-23
58
127
191
266
352
432
509
587
656
720
783
842
886
930
983
1026
1057
1084
1107
1115
1102
1080
1056
1018
954
880
810
740
653
548
439
333
223
108
-14
-140
-258
-361
-462
-558
-645
-718
-792
-862
-917
-948
-959
-959
-945
-918
-887
-854
-819
-789
-755
-719
-663
-600
-556
-524
-484
-448
-426
-408
-367
-319
-278
-246
-207
-166
-140
-121
-110
-119
-147
-162
-170
-183
-196
-198
-203
-218
-250
-282
-315
-352
-381
-397
-403
-393
-374
-352
-332
-306
-271
-236
-205
-164
-98
-33
23
88
162
228
270
309
354
404
448
488
530
570
591
582
561
538
505
463
428
395
354
303
253
199
151
120
88
59
47
50
39
25
27
53
79
88
101
133
173
195
217
251
279
288
302
333
351
352
348
344
343
338
334
331
322
316
303
276
248
221
197
171
144
128
118
98
74
55
42
33
17
4
4
15
21
22
26
32
27
18
21
32
29
20
21
28
18
-5
-25
-34
-47
-65
-73
-81
-95
-113
-136
-165
-196
-226
-260
-294
-322
-347
-373
-396
-412
-424
-440
-457
-477
-502
-512
-512
-517
-528
-528
-517
-512
-512
-507
-489
-473
-460
-442
-410
-380
-355
-324
-287
-258
-229
-192
-155
-129
-100
-62
-32
-7
32
68
99
122
151
181
213
241
267
293
314
325
338
357
372
376
370
373
378
365
343
329
316
292
263
233
200
162
112
56
8
-28
-60
-74
-65
-46
-44
-51
-64
-90
-123
-142
-143
-127
-95
-53
-10
22
37
51
62
80
93
101
121
136
141
140
140
136
129
131
136
134
134
139
142
144
145
145
152
170
184
194
210
235
260
272
285
302
323
336
349
360
374
387
400
411
419
418
414
409
399
384
375
362
341
329
327
318
291
273
263
248
224
207
197
179
159
144
125
100
78
62
43
29
15
4
-9
-20
-36
-50
-62
-80
-105
-117
-121
-132
-147
-148
-141
-147
-158
-165
-169
-172
-179
-189
-189
-181
-171
-163
-161
-161
-162
-161
-162
-166
-174
-172
-162
-160
-165
-173
-178
-182
-185
-187
-198
-206
-201
-196
-203
-213
-217
-215
-215
-218
-220
-210
-194
-179
-170
-150
-136
-135
-128
-106
-89
-78
-60
-36
-13
9
24
28
30
33
40
41
45
54
57
61
68
70
63
51
39
32
26
18
13
12
11
11
14
20
13
3
7
15
15
11
18
28
38
43
53
56
54
56
62
62
60
71
79
71
74
84
90
83
81
83
78
69
61
58
54
31
10
-4
-15
-30
-47
-63
-79
-88
-96
-120
-150
-166
-168
-189
-212
-221
-215
-216
-224
-223
-216
-212
-210
-200
-187
-179
-174
-161
-144
-137
-136
-129
-125
-123
-115
-108
-111
-117
-116
-107
-104
-114
-113
-103
-100
-101
-91
-82
-82
-81
-70
-59
-54
-50
-46
-45
-41
-29
-18
-11
-8
-7
-3
1
0
-7
-13
-13
-15
-19
-21
-23
-23
-31
-38
-39
-41
-54
-68
-63
-61
-71
-79
-69
-55
-62
-74
-74
-78
-92
-107
-107
-104
-103
-109
-112
-116
-123
-134
-144
-153
-156
-159
-161
-163
-169
-183
-192
-203
-217
-232
-242
-258
-276
-287
-293
-303
-313
-320
-327
-338
-347
-342
-332
-328
-326
-309
-280
-262
-255
-242
-213
-197
-192
-178
-155
-136
-130
-112
-84
-61
-48
-45
-26
-3
5
12
30
50
64
74
83
85
87
96
103
104
100
100
92
88
83
74
52
30
16
12
9
-1
-18
-33
-39
-47
-62
-83
-96
-100
-95
-94
-91
-88
-96
-104
-104
-109
-119
-127
-131
-131
-126
-116
-117
-123
-120
-112
-116
-129
-133
-127
-125
-123
-120
-117
-117
-111
-105
-105
-105
-97
-85
-76
-68
-54
-46
-46
-35
-20
-8
4
18
39
55
71
89
108
120
125
129
136
152
165
169
176
188
201
209
209
200
185
178
178
175
168
161
157
152
159
163
152
131
122
125
122
111
99
98
98
95
82
71
59
41
29
20
11
3
-4
-11
-17
-19
-19
-28
-43
-49
-42
-40
-48
-51
-42
-40
-49
-56
-49
-48
-60
-69
-68
-63
-66
-74
-70
-61
-60
-61
-52
-44
-36
-26
-11
3
9
12
20
26
30
35
45
61
71
79
83
93
104
114
121
131
148
158
166
178
181
173
167
170
176
178
170
167
175
187
187
185
185
176
163
158
159
161
159
162
164
176
191
188
177
173
186
197
206
223
234
239
250
269
286
286
279
284
289
284
272
265
261
254
244
240
240
235
223
218
208
197
184
174
168
150
130
121
118
111
97
88
76
70
65
64
62
51
38
26
25
19
6
-5
-14
-25
-29
-30
-38
-58
-85
-101
-107
-119
-135
-138
-128
-128
-136
-135
-132
-136
-147
-148
-142
-139
-130
-122
-122
-126
-121
-108
-106
-113
-113
-101
-97
-98
-98
-87
-87
-91
-87
-86
-97
-117
-129
-133
-141
-148
-152
-160
-177
-187
-180
-175
-175
-179
-172
-155
-142
-139
-140
-144
-142
-133
-120
-107
-95
-82
-65
-43
-33
-27
-13
5
16
29
52
71
80
87
96
101
103
110
117
119
120
131
147
143
132
130
136
136
128
128
137
144
143
142
140
137
130
123
116
109
110
115
122
117
118
120
124
139
163
184
206
227
242
249
257
269
286
301
308
315
325
332
332
324
324
339
351
352
346
334
317
298
273
239
196
159
132
107
80
50
21
-14
-41
-58
-79
-111
-146
-171
-184
-200
-216
-221
-219
-213
-201
-179
-153
-142
-138
-117
-89
-79
-82
-75
-59
-41
-30
-14
6
21
32
53
69
59
80
101
120
140
139
149
158
182
199
180
170
183
202
213
229
237
242
248
251
237
222
220
225
225
214
205
198
188
162
145
133
123
111
101
96
85
74
64
48
23
-3
-18
-24
-29
-33
-39
-45
-55
-62
-62
-65
-74
-85
-83
-76
-69
-76
-74
-65
-59
-51
-46
-38
-25
-21
-21
-20
-6
9
14
19
29
43
56
62
52
45
44
37
27
19
15
0
-16
-19
-13
-22
-38
-46
-44
-49
-62
-59
-50
-47
-46
-40
-26
-19
-8
7
27
44
62
83
110
133
150
165
184
207
235
276
322
356
371
392
404
392
372
368
374
379
391
405
421
452
506
548
558
555
544
512
465
434
421
413
388
325
187
-21
-260
-499
-736
-957
-1155
-1340
-1527
-1710
-1879
-2020
-2126
-2190
-2199
-2153
-2084
-2010
-1927
-1822
-1713
-1607
-1498
-1378
-1249
-1119
-979
-828
-675
-521
-374
-239
-114
-1
97
187
281
367
434
490
544
583
602
603
604
599
586
575
568
553
524
499
487
475
452
437
438
436
432
439
454
460
454
453
462
470
475
479
488
499
505
507
509
498
481
466
457
448
443
430
410
393
382
367
338
302
277
260
242
228
215
202
187
181
188
192
186
189
203
213
210
210
222
235
239
244
255
266
263
268
268
259
240
222
205
188
157
123
100
80
54
25
2
-23
-54
-90
-124
-153
-185
-206
-223
-245
-259
-256
-251
-260
-261
-243
-224
-215
-204
-178
-146
-123
-108
-92
-68
-49
-45
-43
-36
-28
-24
-21
-14
-18
-15
-11
-11
-17
-22
-23
-32
-42
-40
-40
-57
-77
-77
-80
-90
-100
-101
-106
-114
-118
-120
-123
-132
-130
-111
-87
-73
-63
-39
-13
10
31
46
53
59
71
78
71
65
71
76
72
68
64
57
48
37
36
35
30
15
5
-9
-29
-51
-76
-100
-112
-117
-123
-134
-129
-122
-126
-149
-165
-169
-178
-190
-197
-193
-195
-194
-189
-184
-178
-174
-175
-180
-170
-154
-138
-121
-104
-85
-64
-42
-33
-29
-10
11
20
22
36
51
44
28
30
43
45
29
27
39
38
15
-5
-16
-31
-53
-63
-67
-69
-75
-83
-98
-111
-116
-127
-139
-152
-156
-151
-151
-155
-152
-149
-146
-147
-144
-143
-142
-134
-128
-117
-107
-96
-88
-80
-65
-46
-32
-27
-13
-1
2
7
18
30
35
44
53
57
61
59
58
62
70
68
64
71
79
82
92
101
111
117
123
125
125
137
146
140
137
150
158
159
152
152
153
147
138
132
131
121
102
85
71
56
35
20
12
-2
-28
-38
-34
-47
-76
-82
-79
-88
-96
-87
-82
-84
-80
-76
-85
-90
-80
-77
-80
-74
-68
-59
-51
-44
-40
-40
-39
-31
-16
-4
-4
2
20
37
44
55
66
74
86
105
114
121
133
145
149
153
159
156
151
144
137
128
119
107
92
72
54
46
36
17
-2
-7
-9
-21
-38
-39
-32
-47
-76
-81
-74
-83
-109
-121
-123
-135
-148
-158
-170
-186
-188
-183
-186
-200
-198
-189
-186
-181
-175
-178
-183
-182
-174
-171
-168
-167
-151
-125
-118
-126
-131
-131
-139
-152
-154
-148
-140
-131
-125
-123
-129
-127
-127
-133
-140
-140
-136
-121
-102
-86
-71
-57
-51
-39
-25
-17
-9
6
23
32
43
51
54
54
54
52
45
41
39
26
10
-4
-15
-27
-43
-63
-81
-87
-95
-110
-125
-139
-147
-149
-152
-165
-173
-168
-157
-155
-150
-139
-125
-116
-104
-90
-84
-79
-65
-45
-28
-17
-2
18
35
46
48
54
64
67
59
69
96
114
112
117
130
131
120
119
123
121
118
127
136
132
121
122
128
122
113
113
124
126
127
137
137
125
122
129
131
118
114
115
111
106
101
91
72
50
36
21
12
-2
-16
-24
-30
-37
-51
-65
-72
-80
-85
-86
-76
-71
-70
-59
-40
-32
-38
-42
-31
-16
-7
0
13
29
38
38
34
37
33
19
12
18
14
-2
-14
-22
-37
-62
-90
-116
-136
-154
-170
-184
-194
-206
-220
-233
-243
-253
-262
-264
-267
-270
-258
-235
-228
-232
-217
-198
-194
-191
-175
-166
-161
-146
-118
-101
-100
-87
-66
-59
-59
-53
-42
-31
-26
-15
-5
3
12
10
9
15
14
8
8
13
11
5
3
6
12
22
29
37
47
63
78
83
80
77
76
70
68
74
96
108
120
139
162
172
163
160
169
172
167
168
180
187
187
190
195
187
182
178
172
166
169
179
185
179
181
186
177
162
162
170
169
161
163
175
178
170
171
173
168
163
165
167
165
163
167
172
178
179
181
190
193
188
184
181
172
156
149
147
135
108
77
50
22
-8
-38
-65
-91
-102
-111
-126
-147
-167
-178
-187
-198
-204
-205
-205
-205
-206
-189
-164
-149
-143
-125
-94
-70
-49
-31
-18
-6
15
33
43
54
67
81
97
117
128
128
120
127
136
126
106
100
100
94
76
57
45
28
2
-26
-46
-62
-86
-108
-119
-132
-145
-150
-150
-159
-167
-158
-143
-137
-136
-121
-105
-93
-84
-66
-34
-3
23
43
79
116
142
158
185
206
213
217
233
244
254
252
246
246
242
231
219
209
201
193
181
175
175
167
153
150
149
137
122
111
102
87
76
69
63
52
33
16
2
-16
-39
-57
-64
-73
-86
-89
-86
-88
-91
-87
-80
-79
-89
-93
-92
-86
-86
-88
-92
-97
-93
-102
-129
-161
-180
-198
-224
-245
-251
-257
-268
-269
-269
-276
-287
-290
-288
-278
-255
-229
-206
-188
-172
-152
-134
-120
-111
-97
-70
-41
-21
-1
27
51
66
77
106
136
143
151
179
214
222
216
214
217
214
210
220
241
266
281
290
299
304
296
273
255
247
238
211
168
123
90
59
22
-15
-36
-40
-35
-35
-42
-63
-94
-141
-222
-321
-390
-416
-417
-398
-347
-260
-175
-119
-85
-63
-59
-68
-66
-35
6
46
79
100
97
66
27
0
-20
-40
-60
-75
-85
-101
-128
-149
-161
-163
-170
-179
-179
-168
-164
-160
-145
-119
-92
-69
-48
-32
-9
22
58
89
110
130
157
172
182
188
193
201
208
217
234
244
237
218
198
189
179
160
150
135
114
91
65
37
4
-17
-32
-54
-76
-90
-104
-113
-131
-151
-160
-163
-165
-171
-167
-157
-157
-161
-147
-129
-127
-122
-116
-107
-97
-91
-76
-57
-39
-20
-10
-3
2
6
7
1
-3
2
5
4
9
16
10
-18
-49
-68
-84
-97
-90
-60
-30
-9
16
42
66
82
92
97
98
109
116
113
113
114
102
69
23
-23
-42
-36
-20
-6
11
42
65
61
49
57
56
47
41
44
34
-4
-39
-45
-35
-23
-9
4
13
9
5
4
16
38
56
62
67
64
33
-20
-75
-109
-122
-116
-109
-114
-132
-165
-205
-243
-280
-306
-322
-328
-328
-338
-352
-356
-352
-346
-322
-285
-244
-218
-196
-171
-157
-161
-170
-157
-143
-129
-115
-85
-52
-22
3
14
17
22
25
24
26
39
49
55
79
104
110
94
70
53
55
67
81
84
74
45
3
-43
-79
-104
-105
-96
-86
-88
-93
-102
-124
-155
-172
-170
-162
-156
-155
-146
-134
-128
-122
-105
-78
-54
-44
-37
-31
-32
-37
-33
-28
-39
-58
-60
-52
-33
-10
21
47
52
51
63
85
100
112
131
148
149
139
129
123
108
100
115
131
123
97
70
49
27
19
29
46
59
68
69
51
20
-16
-47
-63
-69
-68
-62
-68
-78
-83
-93
-107
-116
-118
-121
-128
-120
-98
-78
-68
-54
-28
0
8
4
9
33
51
53
48
47
44
37
33
28
4
-19
-22
-17
-25
-39
-43
-38
-42
-49
-63
-80
-92
-104
-109
-117
-120
-123
-125
-128
-127
-121
-117
-113
-110
-104
-90
-81
-79
-77
-68
-58
-46
-27
-5
5
6
19
34
33
26
30
41
43
45
45
45
53
61
61
55
60
61
50
38
38
43
45
49
53
54
42
25
11
2
-12
-24
-21
-13
-12
-17
-18
-17
-21
-30
-35
-33
-29
-22
-21
-20
-14
-12
-8
-3
-1
0
7
14
20
25
29
38
49
54
55
63
71
81
92
102
107
117
127
131
129
129
124
117
112
116
128
133
125
110
108
109
98
87
86
85
75
70
73
71
67
65
67
76
84
84
80
82
89
85
77
69
68
67
66
65
61
60
63
59
56
55
48
43
36
39
39
33
30
29
41
44
43
48
53
50
47
45
48
47
33
29
30
23
14
18
16
0
-12
-13
-14
-26
-35
-33
-32
-40
-51
-59
-62
-68
-73
-76
-73
-70
-73
-72
-65
-62
-68
-69
-75
-84
-94
-95
-103
-121
-131
-132
-145
-167
-178
-181
-192
-207
-215
-223
-226
-228
-242
-250
-247
-248
-258
-260
-247
-239
-239
-235
-222
-211
-200
-193
-176
-153
-130
-110
-86
-61
-50
-50
-44
-34
-30
-32
-33
-27
-20
-13
-9
-15
-20
-16
-8
-4
-3
1
10
22
33
42
54
68
76
77
87
100
110
118
129
135
141
149
154
158
162
173
178
181
188
189
189
188
192
190
187
191
193
194
197
195
191
186
186
181
175
171
169
163
158
158
160
161
163
154
145
141
134
123
120
128
135
134
133
128
122
118
116
115
117
123
129
135
130
119
113
109
110
105
103
104
109
112
116
114
98
86
74
67
62
59
61
56
43
33
33
23
-9
-37
-47
-48
-66
-91
-103
-116
-138
-160
-177
-192
-209
-222
-231
-246
-262
-271
-282
-302
-320
-326
-334
-349
-352
-352
-363
-374
-381
-380
-390
-403
-409
-409
-416
-417
-410
-405
-405
-406
-397
-385
-374
-367
-361
-343
-322
-302
-277
-250
-227
-199
-165
-130
-109
-89
-62
-39
-26
-12
5
11
16
40
70
86
95
109
128
140
153
177
200
215
226
241
263
275
279
298
319
325
330
354
380
378
363
356
360
364
360
359
355
353
355
347
324
301
286
275
265
265
269
258
237
233
231
216
187
154
124
99
77
59
43
34
24
10
-13
-22
-29
-50
-76
-73
-68
-79
-85
-75
-68
-77
-80
-67
-51
-50
-46
-34
-19
-12
0
17
35
50
62
74
85
93
106
121
128
139
153
161
145
119
109
111
107
109
130
148
141
128
127
125
105
83
82
90
83
68
58
55
46
34
18
-3
-28
-50
-65
-79
-93
-108
-119
-126
-138
-151
-156
-170
-189
-192
-192
-192
-189
-186
-187
-194
-195
-188
-186
-193
-201
-197
-186
-177
-175
-183
-187
-189
-193
-190
-185
-187
-199
-201
-197
-204
-226
-246
-265
-282
-300
-305
-307
-316
-331
-337
-336
-339
-350
-356
-359
-352
-336
-320
-297
-271
-244
-220
-191
-164
-143
-124
-96
-58
-15
21
54
86
111
134
156
176
190
211
231
248
263
279
287
283
278
275
270
261
253
248
242
228
215
210
200
186
177
172
169
162
157
151
147
141
134
129
120
108
104
109
112
110
113
122
125
122
121
121
119
114
116
124
134
136
132
135
131
131
127
119
120
128
134
136
139
137
126
116
112
108
100
98
104
110
114
116
112
111
107
102
97
106
113
114
119
120
118
107
96
87
83
79
74
72
73
81
78
67
58
58
55
50
48
50
48
36
27
23
23
9
-18
-33
-33
-37
-50
-70
-84
-85
-99
-123
-143
-156
-172
-197
-212
-211
-219
-248
-271
-288
-299
-319
-340
-357
-372
-374
-383
-400
-411
-415
-433
-453
-463
-472
-485
-502
-519
-531
-543
-562
-590
-608
-611
-614
-630
-639
-637
-633
-638
-646
-644
-639
-642
-632
-605
-581
-570
-548
-518
-492
-477
-449
-417
-395
-375
-341
-301
-267
-239
-208
-177
-155
-131
-102
-67
-41
-21
-6
22
58
79
86
99
120
137
145
149
161
174
174
175
190
209
216
217
227
242
256
262
261
266
278
289
290
290
297
309
310
309
316
321
321
316
312
312
313
306
302
308
313
303
289
286
281
273
264
257
248
243
242
235
223
218
217
220
217
212
206
196
187
187
193
186
175
170
177
177
169
167
169
165
160
154
150
148
148
139
131
140
148
145
139
136
135
132
129
119
102
96
102
99
90
88
85
77
77
83
80
71
73
89
97
96
93
98
105
112
122
137
144
144
145
148
142
129
117
104
84
66
55
36
11
-14
-41
-78
-119
-145
-166
-195
-229
-254
-278
-296
-315
-339
-359
-362
-360
-362
-354
-339
-331
-321
-298
-281
-273
-257
-233
-211
-193
-165
-140
-123
-113
-101
-92
-88
-80
-67
-51
-31
-19
-9
15
31
33
32
40
53
63
70
79
86
93
104
109
112
106
104
106
113
116
115
121
129
132
140
154
166
169
181
200
207
210
224
240
245
238
239
251
258
257
256
263
272
270
270
271
271
266
264
263
253
244
242
247
233
221
218
206
188
167
150
129
111
105
107
97
82
76
70
54
40
33
19
4
7
13
5
-6
-6
-10
-19
-21
-17
-24
-26
-18
-14
-14
-12
-8
-8
-9
-5
5
15
19
16
13
15
18
12
7
6
9
16
28
33
31
28
24
16
13
9
1
-13
-19
-16
-12
-16
-28
-36
-35
-37
-45
-46
-43
-37
-36
-32
-22
-18
-18
-12
-10
-12
-7
-2
2
-5
-13
-15
-13
-18
-26
-33
-35
-47
-66
-78
-88
-111
-135
-149
-160
-187
-219
-240
-252
-272
-301
-327
-340
-358
-383
-400
-413
-423
-435
-451
-466
-474
-479
-491
-506
-510
-512
-525
-544
-553
-549
-557
-573
-585
-573
-561
-562
-578
-594
-601
-607
-613
-616
-612
-615
-628
-643
-638
-616
-603
-606
-602
-584
-567
-557
-546
-527
-515
-509
-507
-507
-508
-521
-535
-552
-562
-566
-580
-601
-631
-659
-684
-714
-742
-775
-814
-852
-885
-914
-939
-960
-983
-1008
-1032
-1048
-1058
-1068
-1078
-1075
-1065
-1065
-1060
-1037
-1007
-982
-959
-926
-886
-840
-795
-744
-691
-619
-538
-458
-385
-304
-227
-151
-68
17
100
177
257
336
420
492
551
610
676
749
807
854
898
939
978
1010
1040
1064
1087
1101
1105
1118
1137
1136
1120
1112
1109
1099
1078
1064
1054
1043
1028
1013
992
972
954
939
921
904
887
872
859
848
827
807
789
761
738
724
712
685
667
656
641
614
591
579
566
551
544
542
539
522
494
482
469
442
419
416
418
408
398
390
381
360
336
316
299
278
263
249
240
223
206
185
163
134
105
70
32
-5
-32
-44
-43
-32
-8
21
59
117
199
294
388
483
584
685
779
860
942
1032
1121
1207
1294
1378
1450
1506
1556
1595
1615
1629
1640
1631
1594
1542
1478
1391
1280
1162
1029
877
715
548
377
198
21
-146
-311
-471
-608
-729
-848
-967
-1061
-1123
-1162
-1199
-1220
-1216
-1206
-1191
-1160
-1123
-1098
-1071
-1032
-983
-932
-880
-835
-793
-744
-698
-659
-623
-589
-555
-523
-494
-471
-461
-470
-487
-503
-506
-495
-474
-448
-413
-389
-385
-398
-432
-475
-509
-521
-510
-484
-444
-400
-357
-320
-293
-277
-261
-238
-209
-161
-97
-49
-5
58
137
212
281
343
399
445
488
520
540
563
594
619
635
641
649
643
629
629
643
647
633
615
611
610
587
561
543
537
528
522
519
509
494
485
478
457
431
406
375
341
313
284
244
195
161
134
99
52
5
-34
-76
-124
-171
-210
-250
-301
-350
-385
-407
-432
-467
-498
-520
-528
-536
-542
-545
-534
-509
-488
-463
-422
-382
-353
-315
-256
-204
-165
-114
-53
-9
24
55
92
130
162
196
231
250
252
248
240
220
196
183
166
140
121
102
66
15
-32
-68
-109
-158
-205
-232
-252
-279
-304
-314
-317
-322
-331
-328
-317
-304
-291
-278
-252
-216
-183
-157
-133
-100
-78
-64
-48
-24
-4
11
20
37
57
73
84
90
93
91
92
98
96
85
67
57
52
39
22
6
-13
-30
-53
-76
-93
-115
-140
-166
-177
-183
-200
-212
-208
-192
-186
-186
-186
-188
-189
-185
-177
-170
-157
-139
-123
-116
-113
-107
-94
-79
-77
-76
-68
-50
-33
-23
-17
-14
-8
-2
8
25
27
33
51
72
89
105
115
120
138
157
167
172
185
207
215
218
225
236
239
231
221
220
223
220
203
194
201
192
169
157
155
149
133
119
110
95
79
64
48
30
12
1
-19
-43
-59
-73
-88
-109
-129
-145
-159
-176
-185
-194
-205
-212
-216
-224
-225
-227
-232
-236
-239
-239
-234
-225
-215
-210
-213
-216
-217
-217
-213
-214
-222
-225
-211
-196
-198
-202
-196
-187
-181
-174
-162
-147
-134
-126
-121
-107
-84
-68
-56
-45
-25
-6
13
30
39
50
69
86
96
107
121
143
157
159
155
156
161
162
156
156
158
156
145
134
134
127
117
109
108
107
102
99
99
101
101
101
107
113
117
119
125
133
142
151
149
151
162
170
175
177
184
187
185
187
188
189
183
175
175
176
176
173
163
161
156
144
127
112
94
74
61
42
29
18
6
-12
-25
-31
-32
-30
-36
-43
-45
-44
-44
-49
-49
-49
-43
-30
-7
5
5
11
30
44
40
37
41
57
70
77
85
87
88
89
94
97
94
87
86
93
95
93
89
73
52
42
41
31
12
-1
-5
-7
-22
-43
-58
-66
-80
-96
-100
-92
-97
-112
-123
-123
-127
-137
-150
-157
-157
-155
-162
-176
-186
-189
-194
-197
-198
-207
-211
-200
-192
-200
-205
-203
-202
-199
-192
-189
-192
-190
-187
-183
-180
-185
-187
-173
-156
-152
-150
-144
-128
-112
-93
-73
-54
-45
-23
-8
11
30
42
47
59
82
106
118
122
135
151
161
157
153
154
159
159
158
164
168
163
152
142
139
128
109
91
86
81
69
58
60
53
40
29
20
9
0
-7
-12
-13
-11
-12
-22
-34
-32
-32
-39
-45
-43
-47
-58
-65
-67
-80
-95
-97
-89
-90
-97
-90
-81
-82
-89
-92
-88
-86
-84
-87
-87
-86
-88
-98
-106
-102
-104
-120
-127
-126
-124
-129
-137
-144
-142
-132
-120
-115
-113
-105
-90
-81
-76
-68
-61
-53
-44
-30
-25
-23
-16
-5
3
0
-6
-9
-6
1
9
11
20
41
59
60
56
56
62
72
76
76
84
95
96
100
122
128
121
121
134
139
139
139
131
116
111
111
106
97
92
92
88
81
74
68
52
37
35
43
47
44
38
44
54
58
50
40
38
36
31
21
23
18
8
0
1
-2
-14
-16
-10
-6
1
16
27
29
31
45
59
71
81
93
109
122
137
147
153
146
144
154
158
149
140
139
135
129
121
110
94
77
67
63
56
40
33
32
25
12
5
3
-6
-19
-24
-27
-30
-35
-40
-44
-45
-55
-73
-85
-95
-104
-118
-125
-129
-138
-145
-148
-150
-157
-161
-161
-155
-155
-159
-155
-145
-140
-143
-138
-130
-127
-121
-103
-96
-94
-80
-54
-43
-42
-35
-23
-12
-9
-5
3
5
9
17
28
36
36
35
41
44
45
37
35
42
51
47
40
40
35
31
31
26
21
16
12
4
-5
-9
-16
-16
-13
-18
-21
-14
-14
-23
-29
-27
-30
-45
-43
-41
-41
-47
-49
-38
-35
-35
-29
-24
-26
-40
-42
-41
-44
-50
-51
-59
-70
-81
-82
-90
-106
-123
-128
-128
-135
-144
-157
-164
-160
-156
-152
-146
-143
-137
-134
-135
-131
-121
-123
-127
-119
-114
-116
-114
-100
-95
-104
-104
-95
-89
-91
-95
-99
-101
-98
-88
-82
-91
-92
-75
-63
-65
-63
-51
-42
-41
-41
-27
-12
-11
-15
-17
-10
-8
-14
-22
-29
-37
-45
-53
-56
-57
-58
-61
-66
-68
-66
-68
-76
-73
-62
-58
-60
-50
-35
-34
-35
-30
-12
-3
1
6
7
4
11
19
14
5
3
0
-11
-15
-7
-1
-3
-12
-26
-37
-46
-51
-57
-53
-45
-39
-33
-20
-20
-28
-34
-35
-25
-10
7
17
23
35
61
71
74
74
73
75
88
99
100
99
105
103
92
88
86
75
71
77
76
69
69
70
63
56
56
54
55
61
73
86
92
90
82
78
71
62
63
66
55
42
46
53
39
15
5
1
-12
-24
-21
-19
-21
-27
-20
-6
2
2
6
18
21
19
21
29
37
45
57
66
72
78
88
91
86
90
101
106
112
110
104
102
109
112
105
104
105
95
87
83
77
68
51
41
37
23
1
-19
-31
-51
-76
-99
-115
-131
-154
-172
-181
-187
-199
-213
-209
-195
-195
-202
-196
-183
-184
-187
-181
-175
-173
-161
-143
-130
-122
-115
-107
-102
-100
-95
-93
-92
-88
-78
-68
-59
-57
-53
-52
-51
-50
-49
-42
-27
-13
1
15
30
41
49
54
62
73
81
85
102
112
114
116
119
118
115
114
114
112
112
118
119
117
119
116
107
104
105
104
97
97
103
99
94
90
86
80
68
59
52
52
58
59
53
49
56
66
74
90
119
142
166
194
216
222
229
251
287
319
342
363
382
392
387
366
339
308
284
268
268
283
312
358
429
526
636
740
833
906
947
956
955
946
899
818
693
510
277
3
-299
-602
-874
-1118
-1338
-1522
-1656
-1769
-1865
-1935
-1969
-1968
-1931
-1867
-1793
-1711
-1619
-1521
-1423
-1319
-1198
-1056
-901
-738
-575
-422
-282
-165
-57
42
149
256
353
444
532
607
661
685
690
684
663
639
614
593
566
530
490
453
425
412
392
372
366
370
373
379
396
409
413
430
463
488
497
509
520
525
528
532
522
503
494
502
516
515
507
500
492
470
445
423
392
358
333
315
301
285
265
243
231
220
206
194
190
179
169
170
182
185
178
175
178
182
170
153
133
121
105
85
64
49
30
-4
-47
-76
-106
-142
-181
-220
-247
-273
-313
-358
-392
-422
-449
-479
-495
-507
-519
-531
-539
-540
-539
-542
-536
-523
-514
-504
-481
-458
-440
-424
-395
-369
-354
-337
-299
-267
-250
-231
-190
-154
-139
-118
-91
-73
-60
-42
-15
11
21
32
45
50
49
51
55
54
60
75
77
68
62
64
62
51
36
27
22
14
8
-1
-12
-27
-44
-51
-58
-74
-93
-102
-103
-105
-102
-93
-86
-87
-81
-61
-44
-42
-38
-14
13
28
36
55
80
108
129
148
162
180
199
211
222
238
259
268
270
274
290
302
302
304
311
317
313
302
290
279
266
247
227
218
210
198
188
184
170
147
134
133
123
97
73
61
55
43
29
8
-15
-42
-62
-79
-96
-116
-131
-132
-133
-149
-167
-180
-187
-193
-195
-193
-191
-188
-180
-172
-168
-171
-170
-163
-153
-137
-127
-110
-95
-91
-92
-80
-67
-67
-73
-70
-60
-55
-43
-33
-33
-35
-33
-30
-35
-36
-30
-25
-29
-25
-19
-17
-26
-34
-35
-41
-41
-45
-54
-56
-57
-60
-74
-86
-91
-95
-97
-103
-104
-103
-105
-114
-128
-135
-137
-148
-170
-182
-184
-194
-220
-236
-236
-237
-259
-288
-306
-318
-334
-354
-357
-354
-357
-358
-351
-347
-355
-361
-352
-338
-326
-313
-288
-267
-251
-238
-217
-189
-172
-157
-140
-124
-107
-85
-61
-44
-38
-17
7
25
28
37
56
72
78
86
104
120
134
144
155
165
174
182
191
210
225
231
240
254
258
256
254
258
261
261
265
267
276
275
273
270
259
244
231
226
222
219
214
208
197
188
175
154
136
123
113
103
99
100
102
96
86
87
87
73
57
50
48
42
35
33
35
32
27
19
17
19
18
8
11
24
26
15
9
11
20
23
22
33
52
66
76
83
87
83
78
87
95
96
97
107
116
124
130
122
110
113
130
134
122
114
126
139
140
140
150
151
142
140
151
151
137
128
136
132
116
101
94
80
56
35
20
-3
-38
-70
-91
-111
-136
-169
-195
-213
-238
-269
-293
-311
-340
-365
-387
-410
-437
-466
-482
-505
-533
-555
-574
-602
-632
-652
-667
-691
-716
-727
-734
-745
-750
-746
-741
-739
-723
-696
-678
-654
-623
-581
-542
-512
-475
-427
-381
-344
-303
-253
-203
-170
-142
-101
-62
-31
-5
33
68
86
116
146
165
185
203
219
230
237
252
260
264
274
282
288
290
292
297
308
313
310
305
316
326
322
318
325
326
322
319
318
314
306
303
305
301
293
283
279
278
267
259
254
252
243
240
237
233
228
224
219
216
212
212
206
205
207
205
201
203
209
212
208
201
199
199
201
197
188
192
204
210
204
198
200
201
194
182
185
191
193
190
195
203
196
182
172
167
157
151
149
145
144
147
144
135
126
122
116
110
106
106
114
113
107
104
105
99
100
103
110
111
106
103
106
108
102
91
88
93
93
85
87
87
76
70
73
59
38
23
18
9
-6
-17
-20
-17
-23
-44
-64
-71
-78
-102
-116
-119
-129
-148
-164
-180
-204
-232
-264
-302
-339
-371
-401
-437
-482
-516
-540
-565
-599
-616
-618
-614
-628
-636
-620
-602
-591
-586
-571
-554
-542
-520
-491
-465
-447
-426
-394
-365
-348
-326
-307
-290
-271
-245
-216
-192
-167
-140
-116
-91
-72
-53
-30
-9
11
30
56
81
102
116
128
145
160
167
168
179
193
196
201
208
213
216
218
226
230
229
232
239
243
245
246
240
234
240
247
244
231
233
243
247
239
230
222
206
190
180
180
174
165
160
168
165
154
144
146
143
136
130
134
138
137
135
136
148
156
158
163
172
184
192
186
184
188
189
186
188
192
189
189
193
191
183
170
158
154
149
148
142
138
135
137
138
134
134
139
137
136
136
137
133
127
124
126
126
128
128
122
121
124
124
103
90
97
100
86
84
98
96
81
78
90
95
75
61
67
68
49
35
35
34
20
14
19
11
-14
-18
-14
-27
-52
-61
-63
-77
-84
-78
-79
-100
-114
-109
-106
-116
-129
-135
-132
-134
-135
-134
-139
-144
-147
-148
-147
-151
-162
-169
-178
-190
-203
-209
-217
-221
-226
-234
-243
-253
-267
-283
-296
-310
-325
-339
-355
-366
-375
-370
-366
-364
-364
-356
-338
-317
-298
-280
-250
-211
-177
-153
-120
-88
-63
-40
-12
18
43
64
82
102
123
140
156
168
175
179
185
195
200
194
186
175
158
140
125
110
86
60
43
31
5
-26
-50
-62
-79
-96
-94
-89
-92
-95
-85
-69
-61
-62
-53
-32
-14
8
38
67
91
106
127
156
176
191
207
234
252
264
281
292
298
302
304
307
308
312
315
311
313
312
299
290
289
282
271
261
262
261
256
251
245
228
213
211
206
199
189
184
183
184
184
177
170
170
165
154
151
155
148
134
123
130
137
133
123
119
129
132
120
115
122
118
109
111
113
100
88
84
84
76
69
62
58
52
40
27
24
27
26
31
32
29
27
33
40
34
31
35
49
63
77
91
99
117
137
152
159
165
181
203
220
228
233
242
243
238
238
241
237
224
214
211
205
184
157
139
122
101
75
56
39
23
7
-1
-3
-15
-45
-75
-87
-90
-97
-110
-109
-102
-101
-112
-119
-120
-125
-135
-143
-135
-127
-131
-145
-146
-143
-144
-158
-160
-148
-146
-157
-158
-154
-168
-196
-208
-209
-221
-249
-262
-269
-282
-299
-311
-323
-342
-357
-367
-375
-393
-405
-408
-398
-385
-381
-380
-365
-342
-323
-313
-293
-268
-246
-221
-191
-162
-144
-119
-87
-60
-35
-15
1
17
42
67
85
103
128
137
129
136
149
147
139
142
154
153
137
129
125
104
78
64
60
47
26
3
-11
-32
-60
-83
-109
-134
-159
-176
-186
-196
-211
-221
-227
-237
-249
-259
-272
-284
-286
-275
-262
-246
-231
-222
-208
-199
-200
-208
-201
-187
-181
-170
-143
-118
-110
-116
-113
-99
-102
-117
-113
-88
-79
-84
-77
-60
-68
-86
-91
-83
-89
-102
-104
-95
-95
-97
-99
-109
-113
-112
-110
-116
-124
-120
-115
-109
-114
-127
-132
-133
-139
-152
-158
-151
-151
-157
-161
-155
-156
-161
-162
-160
-156
-154
-159
-161
-153
-148
-153
-158
-145
-139
-146
-155
-157
-156
-164
-169
-163
-160
-163
-161
-154
-151
-147
-146
-141
-134
-119
-101
-90
-85
-78
-70
-63
-49
-34
-20
-5
13
25
30
37
42
45
53
65
72
80
91
102
108
104
107
113
122
126
123
125
133
143
144
141
138
130
123
114
107
100
88
76
63
62
58
41
26
15
12
6
3
-1
-4
-2
-4
-7
-6
-2
-2
-10
-12
-3
7
14
15
14
27
27
15
7
18
26
26
32
51
63
60
63
63
53
48
48
52
55
66
67
60
56
56
56
46
34
25
24
18
13
16
20
15
6
3
2
-4
-14
-16
-11
-9
-13
-16
-18
-21
-30
-40
-41
-37
-40
-45
-47
-41
-41
-42
-46
-52
-55
-64
-72
-75
-79
-87
-99
-109
-129
-143
-154
-174
-193
-200
-200
-207
-212
-212
-214
-223
-225
-223
-227
-225
-216
-206
-194
-170
-149
-136
-123
-108
-94
-84
-70
-47
-30
-21
-6
11
21
26
29
33
33
40
43
42
42
54
69
67
59
64
70
67
59
60
68
71
64
59
57
52
43
34
25
21
15
2
-9
-13
-17
-29
-37
-46
-56
-66
-75
-85
-99
-104
-108
-114
-125
-129
-128
-131
-132
-130
-126
-121
-113
-104
-99
-94
-86
-68
-48
-41
-28
-14
-4
8
18
30
33
33
36
42
52
66
72
77
89
102
108
105
107
109
111
108
108
115
120
113
105
99
93
85
71
59
52
49
42
28
18
18
6
-16
-33
-42
-49
-56
-65
-71
-62
-52
-56
-64
-61
-51
-54
-61
-63
-54
-49
-47
-53
-52
-51
-55
-65
-69
-65
-66
-74
-79
-66
-56
-57
-64
-61
-57
-51
-27
-8
-4
9
34
45
39
48
64
65
67
78
100
112
116
122
135
142
146
152
164
170
175
188
206
215
223
244
263
264
267
281
298
301
298
299
307
313
316
315
311
306
303
301
293
284
273
265
260
259
259
252
239
233
239
246
246
239
238
238
239
233
222
215
215
214
207
204
202
198
188
180
179
174
160
149
150
153
145
136
140
140
131
133
141
143
133
134
142
140
135
136
142
151
156
157
160
167
169
164
160
159
153
144
133
134
133
124
104
91
89
75
51
40
25
1
-21
-24
-29
-50
-74
-95
-110
-127
-146
-175
-202
-226
-244
-265
-290
-320
-340
-350
-369
-390
-402
-413
-432
-448
-453
-461
-485
-499
-496
-501
-516
-524
-513
-507
-512
-508
-488
-479
-478
-463
-444
-433
-426
-399
-367
-340
-326
-304
-268
-236
-210
-190
-167
-134
-101
-67
-35
0
32
62
91
122
152
176
192
209
231
243
247
257
272
278
280
280
278
278
275
266
251
234
226
218
201
185
184
182
165
147
142
135
114
95
87
69
47
44
46
41
28
17
14
14
6
-3
-3
-10
-20
-19
-11
-9
-9
-5
-5
0
9
12
13
15
22
29
38
38
40
45
46
42
41
44
45
45
50
57
60
57
51
44
39
39
43
54
56
52
59
80
83
68
64
72
80
73
71
79
91
97
96
102
105
103
106
108
106
104
110
111
109
111
118
109
99
100
110
106
84
70
71
70
48
22
11
2
-28
-58
-75
-96
-124
-156
-184
-204
-225
-262
-295
-312
-321
-339
-363
-377
-373
-373
-384
-391
-393
-388
-387
-381
-373
-360
-343
-323
-298
-276
-261
-252
-237
-223
-210
-196
-187
-177
-161
-150
-142
-141
-137
-134
-136
-141
-145
-141
-135
-132
-139
-146
-148
-152
-150
-147
-155
-170
-167
-157
-153
-162
-168
-160
-156
-152
-138
-121
-111
-102
-83
-68
-58
-43
-28
-21
-12
12
34
36
46
77
104
111
116
138
152
160
169
182
191
200
207
221
226
220
211
204
199
192
181
175
171
170
161
161
162
150
129
120
122
111
92
89
98
92
84
86
81
66
52
50
58
59
55
53
51
49
52
61
59
47
46
59
73
69
61
65
67
60
56
70
73
55
53
78
94
79
73
84
84
62
49
59
63
57
54
63
76
81
78
73
77
83
79
74
84
93
84
73
68
65
49
31
24
18
2
-15
-28
-36
-42
-55
-72
-87
-96
-104
-115
-122
-127
-143
-162
-167
-171
-179
-196
-214
-219
-216
-213
-221
-230
-228
-227
-236
-246
-253
-262
-271
-278
-287
-294
-293
-300
-316
-321
-313
-316
-326
-329
-323
-309
-305
-302
-290
-273
-258
-248
-239
-228
-217
-208
-197
-188
-176
-165
-152
-145
-138
-130
-120
-115
-109
-102
-90
-73
-65
-64
-56
-46
-35
-23
-10
-4
5
18
29
37
46
56
62
76
94
107
113
124
140
149
157
162
171
181
190
194
193
201
219
226
229
233
237
239
245
249
244
229
224
220
212
199
186
180
169
156
144
133
124
121
113
105
102
103
100
96
98
109
117
121
124
138
159
168
167
168
183
197
202
212
230
254
265
267
278
289
283
274
271
269
262
254
254
256
255
243
227
214
207
195
174
158
151
138
120
99
82
68
49
29
13
9
3
-8
-16
-18
-24
-43
-56
-50
-42
-44
-38
-23
-9
-4
1
8
7
6
12
29
42
49
62
83
97
103
109
115
112
106
105
110
115
114
120
125
120
111
101
95
91
83
76
73
72
61
49
39
34
24
8
6
12
10
-6
-13
-14
-27
-42
-37
-25
-21
-27
-23
-12
-12
-24
-34
-43
-51
-53
-52
-52
-56
-58
-58
-63
-67
-69
-71
-79
-92
-97
-89
-79
-86
-95
-93
-88
-91
-93
-93
-91
-98
-103
-100
-100
-107
-114
-117
-124
-130
-131
-140
-156
-167
-171
-171
-176
-185
-184
-185
-194
-200
-193
-191
-201
-200
-181
-169
-170
-173
-172
-164
-161
-161
-157
-153
-149
-142
-142
-146
-157
-164
-167
-175
-187
-189
-193
-203
-223
-240
-254
-274
-296
-310
-313
-316
-328
-337
-346
-351
-354
-365
-371
-371
-370
-370
-363
-350
-339
-341
-343
-337
-331
-325
-311
-293
-269
-244
-226
-204
-175
-151
-134
-112
-90
-62
-37
-21
-16
-2
20
28
27
41
55
51
42
46
54
46
31
32
38
40
46
51
57
59
56
60
63
58
42
32
27
11
-24
-58
-88
-123
-173
-222
-251
-272
-289
-288
-259
-211
-160
-103
-32
56
152
259
383
499
611
725
849
973
1086
1198
1314
1425
1526
1621
1706
1768
1814
1858
1889
1900
1898
1886
1849
1786
1705
1615
1510
1384
1241
1094
938
765
589
420
256
88
-81
-230
-355
-480
-599
-695
-765
-823
-879
-921
-938
-948
-948
-929
-887
-845
-813
-767
-717
-680
-650
-614
-583
-557
-528
-499
-474
-453
-436
-415
-399
-401
-417
-437
-468
-518
-557
-591
-628
-676
-719
-747
-777
-810
-843
-866
-881
-889
-882
-863
-857
-859
-847
-819
-793
-752
-683
-624
-572
-496
-399
-295
-210
-129
-23
94
200
294
394
486
563
637
705
767
809
837
862
886
902
910
914
908
905
904
888
860
837
808
767
722
683
652
634
623
593
555
524
491
453
420
399
384
362
334
306
286
260
223
191
169
142
116
98
79
42
3
-26
-43
-67
-101
-133
-153
-165
-185
-203
-206
-210
-226
-233
-226
-224
-234
-232
-222
-209
-196
-177
-155
-130
-106
-87
-76
-61
-46
-37
-21
8
40
66
84
109
126
136
139
137
131
117
110
91
67
42
15
-13
-54
-91
-119
-159
-220
-265
-289
-320
-364
-398
-412
-427
-444
-455
-457
-458
-453
-437
-414
-397
-375
-345
-313
-280
-249
-220
-185
-139
-102
-72
-40
-14
7
27
47
62
74
90
110
123
133
136
139
139
133
124
120
125
129
122
111
103
96
87
77
60
45
34
26
22
14
8
7
6
-2
3
10
1
-9
-3
13
15
9
12
33
44
40
44
54
60
58
66
85
98
97
100
114
122
112
111
119
123
124
126
130
127
120
116
111
108
97
93
101
106
104
104
110
107
95
88
87
84
79
86
95
97
94
88
75
60
55
47
37
27
29
26
20
15
5
-15
-30
-30
-31
-40
-42
-33
-26
-24
-23
-27
-27
-24
-25
-20
-14
-14
-17
-19
-16
-9
-10
-18
-26
-30
-28
-40
-55
-62
-60
-66
-76
-83
-89
-102
-116
-124
-129
-133
-144
-144
-144
-151
-164
-171
-169
-171
-182
-183
-175
-176
-182
-182
-183
-192
-196
-193
-190
-188
-175
-158
-153
-149
-139
-130
-146
-147
-133
-122
-115
-105
-85
-63
-47
-37
-38
-33
-27
-25
-24
-16
-4
13
26
40
55
68
78
79
84
88
91
92
94
97
101
96
90
95
102
100
85
72
64
57
49
44
43
44
36
33
36
34
25
17
12
12
6
-8
-17
-19
-15
-10
-7
-1
8
9
1
-1
8
14
4
4
14
22
16
14
19
23
22
23
25
21
13
8
6
-4
-14
-20
-18
-15
-15
-18
-27
-37
-36
-29
-30
-35
-35
-24
-15
-6
1
7
13
9
10
17
22
25
29
32
28
31
38
44
43
44
45
51
59
61
63
67
68
64
65
71
72
70
74
72
60
54
60
58
43
28
25
24
15
-2
-17
-27
-40
-55
-65
-70
-80
-100
-113
-117
-124
-135
-140
-140
-146
-146
-144
-149
-155
-152
-148
-159
-162
-154
-150
-154
-159
-153
-147
-143
-143
-141
-130
-123
-116
-104
-91
-76
-67
-60
-54
-39
-24
-9
0
9
20
33
39
40
48
61
69
74
88
110
122
126
129
144
156
164
172
181
193
205
212
216
218
221
231
236
229
232
249
252
236
226
226
211
193
191
183
165
149
148
142
122
96
81
72
57
38
28
27
21
9
5
-5
-15
-28
-34
-42
-45
-37
-32
-29
-19
-5
3
6
18
30
32
31
38
53
61
60
58
65
80
91
89
85
88
91
87
78
70
68
57
45
47
55
50
40
42
36
27
20
20
14
8
11
23
36
40
38
32
31
35
38
34
29
32
41
47
39
36
37
40
38
35
44
48
38
34
44
49
39
31
37
45
44
41
43
42
33
28
25
15
6
5
15
17
13
14
16
9
-1
-1
-2
-6
-11
-5
2
0
3
-1
-10
-14
-9
-7
-21
-32
-27
-14
-11
-18
-24
-22
-14
-8
-14
-17
-16
-20
-20
-10
-1
-2
-6
-10
-9
1
2
-14
-23
-20
-19
-19
-16
-18
-25
-31
-30
-32
-41
-46
-48
-49
-46
-43
-49
-65
-81
-91
-97
-109
-127
-135
-134
-139
-145
-145
-151
-168
-175
-176
-186
-197
-206
-210
-210
-206
-205
-208
-218
-226
-228
-228
-226
-229
-238
-242
-237
-233
-239
-250
-260
-265
-277
-291
-294
-299
-312
-325
-325
-327
-338
-347
-350
-346
-342
-330
-322
-320
-321
-310
-298
-297
-291
-279
-268
-262
-248
-220
-201
-192
-177
-150
-130
-114
-95
-71
-52
-38
-20
-3
17
31
45
61
73
78
82
86
99
105
99
98
109
121
119
111
107
104
105
103
93
75
60
53
44
31
18
4
-3
-4
1
-1
-8
-21
-27
-30
-29
-36
-44
-45
-36
-24
-16
-8
-3
-7
-18
-16
-2
7
6
12
19
22
23
23
21
10
0
-2
-1
-4
-8
-11
-18
-20
-22
-29
-36
-35
-30
-30
-22
0
17
29
39
58
66
71
83
104
129
147
170
193
208
213
213
209
206
214
236
259
264
258
254
248
233
212
198
198
197
197
202
205
205
203
196
191
189
192
188
170
155
150
143
132
121
113
98
81
73
60
40
17
-4
-21
-27
-13
-6
-10
-18
-28
-29
-29
-30
-26
-8
10
23
35
49
47
35
31
45
61
60
58
66
79
83
74
66
58
39
36
39
42
48
51
52
60
73
71
61
63
80
99
122
141
161
174
187
202
213
228
236
249
254
256
256
250
242
229
211
194
183
175
171
168
155
141
135
133
122
105
105
117
133
138
136
141
140
125
102
88
75
44
9
-8
-24
-50
-86
-109
-130
-160
-183
-209
-236
-267
-303
-329
-344
-350
-369
-387
-396
-396
-406
-413
-409
-409
-417
-416
-412
-409
-402
-394
-384
-366
-342
-328
-330
-339
-340
-340
-350
-351
-349
-346
-337
-324
-310
-315
-320
-316
-314
-334
-359
-364
-368
-382
-395
-397
-400
-414
-419
-415
-418
-419
-413
-399
-389
-380
-368
-348
-333
-314
-289
-253
-221
-200
-166
-118
-90
-76
-49
-8
29
68
109
155
194
233
271
302
323
346
368
393
417
444
473
493
512
532
545
547
545
553
556
558
561
569
577
586
589
598
606
613
623
629
631
637
655
671
690
713
739
751
755
754
741
717
687
666
660
653
649
652
677
720
785
876
980
1060
1110
1137
1132
1098
1051
1001
921
803
631
392
97
-213
-513
-804
-1085
-1332
-1545
-1722
-1864
-1982
-2070
-2113
-2126
-2118
-2079
-2010
-1930
-1848
-1746
-1624
-1497
-1373
-1239
-1088
-934
-782
-632
-481
-340
-203
-72
51
168
280
388
487
568
624
673
702
706
704
695
675
652
626
597
560
515
464
432
409
378
340
324
328
321
305
303
317
325
324
330
343
351
350
345
348
355
352
347
342
339
328
313
294
270
248
223
197
173
143
112
82
50
11
-18
-39
-60
-84
-99
-104
-106
-106
-102
-101
-95
-85
-67
-48
-24
3
29
48
72
106
132
142
157
180
198
197
193
195
191
174
149
132
122
106
76
50
38
21
-12
-48
-68
-85
-113
-146
-163
-175
-183
-191
-200
-206
-204
-200
-208
-215
-217
-217
-216
-212
-197
-182
-167
-153
-136
-120
-106
-96
-87
-69
-48
-37
-41
-45
-41
-37
-36
-40
-44
-42
-39
-47
-58
-61
-68
-88
-109
-114
-112
-128
-153
-170
-176
-183
-199
-221
-238
-245
-259
-272
-282
-289
-293
-294
-288
-280
-281
-288
-284
-262
-240
-221
-204
-176
-146
-123
-101
-77
-53
-33
-16
20
56
74
90
117
141
152
164
181
193
198
213
228
229
229
240
247
239
229
231
229
210
190
184
182
164
138
128
123
104
72
54
47
30
7
-11
-29
-46
-60
-72
-89
-104
-108
-118
-127
-137
-131
-124
-130
-134
-130
-120
-112
-117
-126
-125
-115
-106
-105
-104
-101
-99
-101
-104
-98
-91
-92
-95
-89
-86
-84
-89
-96
-99
-96
-93
-91
-82
-64
-48
-47
-50
-34
-16
-15
-16
-2
18
28
29
41
55
54
48
47
53
52
50
52
55
50
40
42
53
49
35
28
34
34
27
27
29
28
24
22
24
26
22
13
13
15
8
-1
6
4
-15
-33
-38
-44
-49
-56
-67
-75
-79
-78
-90
-111
-121
-121
-127
-133
-125
-109
-96
-91
-85
-69
-56
-53
-50
-37
-23
-13
8
38
61
77
98
122
136
142
154
164
165
169
178
183
178
172
166
160
147
143
142
138
127
130
134
121
101
85
79
70
56
56
63
63
63
68
63
44
31
26
27
31
38
44
57
69
79
92
94
95
102
116
132
148
164
171
182
191
193
189
187
184
169
160
166
172
165
154
154
162
163
163
162
163
165
163
158
158
154
146
136
129
123
118
121
118
107
101
103
101
89
77
65
51
42
45
49
47
46
57
68
71
67
57
50
45
42
41
43
40
41
53
58
51
49
54
62
70
87
109
119
123
130
145
153
154
158
169
180
190
204
215
219
215
214
215
212
208
213
228
239
243
246
248
243
241
239
232
224
219
219
219
221
214
201
193
192
183
169
160
156
146
136
134
134
129
118
110
100
91
87
90
85
72
66
69
75
68
55
49
51
40
30
27
21
10
-1
-13
-27
-36
-48
-71
-91
-102
-110
-125
-142
-156
-170
-181
-198
-211
-219
-231
-249
-256
-245
-233
-241
-256
-263
-262
-264
-274
-284
-285
-288
-291
-283
-274
-275
-281
-280
-281
-281
-281
-284
-289
-293
-289
-277
-276
-282
-284
-295
-301
-300
-303
-324
-343
-350
-352
-363
-383
-393
-401
-415
-434
-449
-456
-477
-503
-520
-522
-534
-550
-563
-568
-569
-567
-553
-536
-531
-531
-525
-515
-495
-476
-456
-431
-403
-369
-342
-320
-306
-293
-270
-250
-232
-213
-191
-175
-156
-134
-117
-111
-104
-98
-89
-77
-64
-59
-59
-49
-34
-25
-17
-11
-6
5
25
46
63
72
87
100
112
128
145
160
179
209
230
245
257
272
282
278
278
277
267
250
237
234
226
202
168
145
131
106
71
39
27
17
-1
-28
-52
-63
-73
-92
-111
-114
-107
-110
-111
-106
-101
-98
-93
-95
-92
-76
-66
-68
-61
-41
-35
-39
-33
-17
-14
-19
-16
-6
7
12
7
11
19
21
13
4
1
-1
-11
-13
-11
-8
-4
4
2
-1
4
5
-4
-9
2
14
16
11
16
21
19
15
1
-12
-15
-10
-12
-21
-27
-39
-51
-59
-64
-68
-72
-70
-60
-50
-36
-24
-27
-26
-22
-11
5
22
35
51
69
79
85
85
83
82
90
99
104
116
138
149
151
157
167
176
180
186
197
210
214
217
221
223
215
204
195
185
179
166
153
142
128
112
102
88
65
48
45
41
31
18
15
9
-5
-13
-15
-23
-31
-26
-27
-32
-31
-25
-19
-14
-12
-18
-23
-16
-12
-11
-7
8
19
24
24
24
32
31
22
23
41
56
61
67
82
88
87
83
77
69
62
53
49
50
49
48
45
33
20
5
-9
-16
-18
-19
-23
-21
-18
-16
-28
-34
-38
-37
-39
-41
-38
-39
-41
-38
-40
-50
-55
-55
-55
-62
-61
-51
-52
-68
-80
-79
-80
-92
-102
-109
-112
-110
-111
-120
-129
-132
-137
-138
-136
-131
-124
-120
-119
-118
-113
-106
-105
-103
-90
-72
-52
-43
-23
-5
2
9
22
33
35
37
55
74
91
95
92
94
104
104
100
91
77
72
76
78
73
64
60
58
44
30
15
-3
-18
-29
-36
-47
-55
-55
-54
-58
-63
-64
-65
-73
-85
-96
-96
-95
-99
-107
-102
-89
-91
-103
-104
-97
-95
-104
-108
-97
-92
-89
-81
-63
-44
-32
-24
-7
15
25
32
38
50
67
81
87
98
119
133
131
132
140
127
110
111
116
108
98
95
96
87
72
60
45
31
17
9
-5
-28
-45
-47
-51
-57
-61
-68
-73
-73
-72
-72
-80
-89
-97
-98
-101
-101
-100
-101
-109
-117
-123
-128
-135
-149
-163
-181
-187
-189
-204
-226
-234
-234
-237
-234
-228
-228
-230
-227
-217
-210
-205
-186
-171
-172
-167
-154
-147
-152
-150
-139
-135
-145
-150
-140
-130
-136
-140
-127
-114
-117
-128
-123
-115
-110
-114
-110
-99
-93
-88
-82
-74
-72
-69
-53
-33
-14
3
20
33
38
43
59
71
68
64
70
81
82
79
80
83
83
82
84
79
66
50
46
45
35
28
30
35
30
23
25
27
21
12
9
13
20
29
38
53
63
70
74
83
94
92
91
98
105
111
116
125
128
136
148
157
158
164
175
179
169
168
186
197
196
203
222
235
234
244
259
268
266
262
272
281
288
297
312
318
312
308
316
319
313
305
300
296
302
309
311
305
300
299
292
284
278
274
264
255
257
255
248
229
212
205
200
188
170
159
148
142
133
120
102
92
94
86
66
54
57
49
33
21
17
8
-2
-14
-14
-5
-4
-8
0
16
20
13
9
11
14
20
30
45
55
65
80
87
78
61
51
49
47
51
50
43
37
33
20
2
-13
-30
-46
-55
-54
-52
-59
-65
-72
-89
-100
-112
-130
-147
-154
-156
-158
-163
-172
-185
-190
-186
-184
-191
-193
-176
-154
-138
-132
-130
-123
-113
-102
-93
-88
-81
-67
-49
-38
-31
-26
-22
-15
-14
-13
4
22
24
28
40
57
63
57
62
75
83
92
112
127
132
130
141
150
154
155
153
157
166
182
192
189
183
180
184
181
174
167
169
168
165
166
167
160
148
141
140
132
119
113
117
119
103
98
105
98
76
65
71
61
49
51
51
38
34
33
36
39
43
47
58
69
68
61
55
52
48
47
41
33
41
58
62
61
68
75
68
63
63
60
53
48
45
47
53
50
36
25
17
1
-19
-36
-46
-52
-58
-65
-75
-91
-110
-135
-161
-179
-201
-225
-237
-243
-255
-274
-295
-311
-329
-344
-353
-367
-384
-394
-398
-404
-414
-422
-430
-440
-446
-446
-452
-465
-469
-466
-458
-458
-473
-474
-462
-449
-452
-450
-438
-421
-413
-401
-391
-375
-356
-345
-339
-324
-296
-272
-261
-250
-225
-191
-168
-158
-148
-128
-104
-92
-77
-50
-26
-21
-16
1
23
21
11
17
34
39
39
46
53
60
65
70
68
76
97
108
111
121
141
159
169
177
188
210
222
225
236
257
279
283
286
299
306
300
295
297
297
299
300
307
307
299
290
295
296
289
279
274
275
270
263
256
241
225
221
219
212
203
202
200
189
182
183
178
164
154
160
171
170
156
149
152
150
143
137
137
129
115
115
122
113
101
91
90
94
90
72
60
66
63
50
48
65
67
55
58
73
72
57
52
56
58
60
68
87
105
109
111
120
131
137
141
153
171
189
206
217
228
239
248
249
249
259
263
259
258
258
249
230
215
203
189
166
140
116
91
64
31
-15
-69
-116
-155
-200
-254
-308
-346
-376
-408
-435
-455
-491
-525
-542
-552
-570
-582
-578
-573
-566
-550
-537
-536
-538
-524
-511
-500
-489
-470
-453
-447
-447
-438
-428
-420
-416
-396
-367
-347
-335
-322
-306
-293
-284
-279
-267
-248
-226
-205
-185
-167
-150
-138
-131
-121
-105
-89
-80
-68
-44
-14
6
22
38
58
69
76
91
104
112
116
134
151
161
164
164
169
173
176
165
157
151
144
137
129
122
107
87
66
58
52
38
28
23
22
17
6
-2
-5
-8
-17
-14
-4
2
7
15
26
37
43
49
58
73
84
96
107
123
130
136
148
153
150
151
169
185
190
191
206
213
212
226
237
238
233
238
245
250
253
259
268
269
271
271
273
278
275
277
279
285
284
278
272
273
271
256
245
241
240
233
222
218
215
210
202
193
184
165
149
141
134
126
119
112
101
87
80
73
61
42
25
17
13
4
-12
-30
-43
-46
-62
-89
-103
-109
-121
-143
-159
-173
-196
-224
-246
-262
-282
-302
-314
-322
-340
-354
-365
-377
-399
-418
-424
-430
-434
-440
-435
-430
-431
-432
-426
-420
-417
-410
-393
-374
-363
-351
-330
-308
-299
-294
-286
-275
-262
-248
-235
-225
-203
-179
-156
-156
-158
-149
-138
-142
-150
-140
-118
-102
-103
-101
-91
-84
-83
-80
-76
-74
-65
-54
-46
-39
-23
-5
0
4
7
14
21
25
25
24
28
36
40
44
49
51
53
57
58
57
60
66
59
46
48
49
45
41
49
57
66
75
86
93
97
101
97
102
116
136
148
158
174
187
200
204
209
215
219
223
230
243
253
259
266
268
268
269
264
256
246
245
245
242
236
230
226
226
221
218
219
217
212
201
198
197
185
171
167
172
170
162
162
169
169
160
159
162
161
156
155
162
160
160
166
167
161
164
176
177
166
157
156
157
157
148
134
130
134
138
131
129
132
131
130
126
122
112
103
96
90
85
75
64
63
51
34
13
0
-8
-22
-44
-58
-60
-66
-84
-105
-123
-143
-165
-184
-207
-237
-269
-295
-321
-360
-399
-422
-443
-476
-510
-528
-544
-571
-601
-620
-628
-642
-655
-663
-660
-651
-642
-630
-612
-594
-571
-547
-528
-504
-473
-440
-415
-390
-359
-328
-299
-270
-239
-212
-190
-167
-148
-127
-100
-79
-58
-22
21
48
67
90
116
126
131
142
157
165
172
188
208
223
225
226
227
231
230
228
230
232
234
233
231
229
214
204
204
205
188
177
176
166
146
134
131
120
104
101
99
93
84
79
75
63
50
47
49
46
43
45
52
58
59
61
65
69
64
63
72
81
84
86
96
100
98
98
102
106
104
107
119
128
127
132
138
146
154
160
162
166
179
185
186
180
178
178
175
170
168
164
163
159
151
148
148
146
142
145
143
140
138
142
143
129
121
121
128
128
115
108
106
106
94
81
69
62
56
49
38
26
20
9
-11
-34
-47
-60
-78
-99
-111
-114
-130
-157
-177
-182
-193
-214
-230
-233
-239
-250
-261
-275
-285
-288
-290
-296
-300
-296
-290
-298
-307
-314
-325
-337
-351
-363
-375
-390
-406
-418
-429
-445
-465
-485
-506
-527
-545
-566
-583
-592
-594
-590
-586
-584
-577
-565
-554
-547
-533
-512
-497
-484
-466
-435
-409
-392
-376
-350
-325
-305
-285
-256
-226
-202
-186
-161
-127
-105
-89
-65
-27
-1
11
37
71
91
97
113
132
140
145
163
191
204
215
238
261
270
268
275
284
293
296
309
326
341
355
363
359
348
348
357
361
356
355
364
375
379
376
371
364
352
339
330
326
312
286
266
256
237
198
159
122
88
53
19
-21
-51
-48
-30
-3
27
60
96
147
220
300
385
473
563
657
754
843
921
993
1071
1166
1266
1351
1414
1476
1533
1571
1594
1607
1615
1601
1569
1527
1477
1400
1295
1172
1033
888
732
559
377
199
33
-133
-303
-466
-611
-748
-873
-981
-1066
-1135
-1179
-1211
-1226
-1225
-1211
-1189
-1166
-1133
-1097
-1050
-1000
-954
-917
-884
-856
-830
-797
-761
-734
-718
-704
-690
-684
-674
-673
-679
-679
-684
-702
-723
-719
-717
-734
-747
-739
-739
-766
-803
-819
-817
-805
-796
-776
-740
-701
-673
-644
-603
-562
-517
-454
-378
-295
-211
-130
-46
28
94
171
262
345
426
510
590
655
704
738
767
790
809
821
831
828
819
814
804
783
757
729
704
667
619
577
539
493
455
422
389
357
330
304
274
242
213
190
172
152
131
117
114
106
98
92
100
101
90
90
101
107
93
84
90
95
87
82
89
101
100
99
113
119
108
111
133
152
160
177
205
234
257
284
305
326
352
379
404
425
443
456
455
448
442
435
423
399
377
352
311
264
221
174
112
52
2
-39
-80
-131
-189
-244
-288
-329
-369
-412
-454
-492
-518
-538
-548
-555
-569
-583
-585
-571
-565
-565
-558
-543
-521
-496
-466
-430
-406
-380
-346
-316
-284
-247
-209
-176
-139
-99
-54
-19
15
59
103
135
163
202
237
255
279
311
331
342
356
366
373
378
380
384
384
380
368
351
339
322
302
276
253
232
206
185
163
140
116
91
73
68
60
42
32
29
18
11
13
14
8
4
-2
-4
4
13
15
17
28
39
49
58
68
77
80
92
101
104
108
113
115
119
123
121
123
134
142
149
156
160
164
161
157
159
164
163
161
159
156
143
132
130
123
105
91
92
85
69
53
55
54
50
45
42
35
28
26
20
10
8
11
11
-2
-11
-11
-6
-11
-19
-20
-20
-31
-45
-46
-40
-53
-77
-89
-90
-104
-131
-152
-162
-168
-180
-190
-200
-213
-230
-245
-258
-267
-277
-279
-280
-285
-280
-271
-272
-285
-298
-300
-293
-286
-282
-278
-261
-256
-262
-258
-248
-251
-260
-254
-239
-237
-236
-227
-221
-227
-234
-232
-227
-230
-230
-223
-215
-212
-210
-212
-218
-224
-217
-193
-186
-189
-174
-149
-144
-158
-156
-148
-147
-149
-137
-123
-119
-113
-105
-95
-83
-71
-68
-66
-52
-40
-35
-31
-18
-8
-1
6
15
22
26
33
31
37
47
51
54
68
81
78
81
94
103
107
108
106
107
115
121
117
113
116
115
114
113
109
101
96
101
107
107
93
86
88
81
70
60
61
55
39
29
31
29
7
-2
-2
-13
-28
-26
-20
-24
-29
-27
-24
-34
-45
-45
-42
-47
-51
-46
-42
-48
-54
-59
-70
-86
-95
-95
-99
-105
-110
-116
-127
-133
-139
-148
-156
-159
-168
-181
-181
-180
-189
-205
-204
-204
-214
-217
-202
-193
-197
-196
-181
-167
-163
-155
-147
-134
-127
-117
-95
-74
-62
-58
-44
-24
-17
-17
-3
14
22
33
50
71
85
98
108
114
122
143
155
156
164
185
204
208
212
227
234
224
221
231
238
231
223
219
210
196
189
193
187
173
165
172
174
161
155
152
142
133
133
135
127
124
133
140
136
130
127
125
126
122
114
106
105
108
111
112
107
101
101
102
99
94
86
88
91
96
105
110
110
103
103
113
113
106
106
113
116
108
100
97
97
85
74
74
77
72
63
52
48
50
52
42
27
30
40
46
42
37
34
30
26
19
15
14
18
16
10
12
17
12
3
-5
-9
-7
-6
-5
-7
-5
1
0
2
8
10
5
9
13
12
12
15
14
16
26
37
42
38
37
38
38
36
31
24
15
15
13
8
2
-11
-27
-37
-41
-59
-76
-78
-79
-84
-89
-85
-84
-101
-112
-109
-112
-123
-121
-113
-122
-126
-121
-116
-125
-142
-147
-147
-155
-166
-169
-169
-168
-163
-155
-156
-165
-173
-175
-174
-177
-180
-170
-152
-135
-118
-102
-105
-136
-181
-216
-245
-277
-294
-283
-267
-257
-249
-245
-243
-252
-254
-240
-222
-207
-191
-173
-155
-147
-137
-124
-109
-94
-81
-68
-58
-58
-58
-61
-70
-74
-66
-57
-63
-68
-56
-33
-26
-32
-31
-24
-24
-30
-26
-17
-12
-6
3
11
16
20
20
18
14
11
8
12
19
23
24
32
42
51
50
47
44
42
41
37
32
22
27
41
41
26
24
37
41
33
28
26
18
7
9
22
26
28
40
59
62
48
41
41
32
21
15
10
6
7
13
10
-8
-26
-26
-30
-49
-62
-58
-60
-69
-74
-63
-61
-70
-76
-77
-81
-88
-96
-101
-99
-100
-104
-103
-99
-100
-107
-106
-94
-90
-91
-91
-90
-93
-90
-80
-77
-77
-71
-63
-53
-44
-36
-40
-52
-47
-34
-34
-38
-42
-42
-35
-25
-18
-9
-10
-13
-8
7
19
21
28
39
53
58
62
62
65
64
58
59
68
70
54
42
45
43
22
10
17
21
14
18
32
42
40
42
55
67
65
62
79
100
104
108
123
142
151
149
147
151
162
171
166
162
164
158
148
140
136
128
111
95
80
71
56
31
6
-9
-20
-27
-30
-36
-42
-41
-42
-52
-58
-56
-59
-72
-78
-71
-58
-46
-41
-37
-26
-13
2
15
28
40
52
62
80
101
115
119
119
122
136
132
111
102
109
113
108
105
100
93
88
84
83
84
81
75
74
72
70
69
68
62
55
59
61
45
28
24
19
3
-15
-22
-29
-47
-68
-80
-93
-113
-124
-131
-141
-160
-173
-175
-178
-187
-197
-192
-189
-193
-193
-183
-173
-178
-176
-150
-124
-117
-108
-82
-55
-42
-28
-6
10
19
37
74
106
132
162
198
227
249
271
293
310
325
341
366
383
391
400
416
439
447
448
457
461
438
410
400
385
357
324
301
274
235
197
157
124
99
76
47
21
-2
-26
-58
-84
-99
-117
-141
-163
-182
-194
-202
-212
-230
-249
-250
-247
-260
-272
-272
-266
-269
-278
-273
-259
-256
-260
-254
-236
-220
-213
-201
-176
-153
-134
-108
-78
-59
-50
-35
-9
13
21
39
57
73
85
99
107
111
123
144
163
176
191
209
226
239
247
255
265
277
290
308
328
353
371
381
385
378
366
345
325
307
290
285
306
346
397
456
546
662
786
873
920
943
943
919
890
859
810
718
559
326
39
-263
-555
-823
-1062
-1266
-1429
-1574
-1710
-1836
-1925
-1973
-1985
-1961
-1901
-1825
-1756
-1688
-1614
-1536
-1444
-1342
-1226
-1084
-914
-750
-607
-474
-347
-240
-135
-23
92
198
294
386
470
534
585
615
628
637
641
633
613
590
571
549
522
497
472
454
448
427
403
390
385
375
357
353
361
364
366
371
376
381
379
374
381
388
384
376
377
379
376
369
360
346
336
334
326
307
280
260
241
221
212
210
208
199
197
206
211
211
203
204
214
222
233
247
263
264
258
262
274
272
262
253
245
229
210
194
177
151
126
109
94
71
39
8
-14
-33
-68
-106
-122
-130
-153
-179
-192
-193
-189
-190
-190
-186
-180
-174
-171
-171
-170
-162
-152
-140
-131
-115
-99
-84
-71
-66
-63
-52
-46
-49
-60
-65
-62
-58
-63
-74
-77
-75
-87
-108
-118
-117
-137
-161
-163
-151
-150
-164
-170
-164
-162
-174
-177
-169
-163
-162
-160
-147
-137
-139
-141
-126
-110
-106
-98
-78
-59
-48
-34
-15
-6
-1
9
22
36
54
70
77
83
97
110
112
109
109
113
116
126
144
151
145
143
155
167
161
146
142
143
141
136
138
133
118
113
122
124
110
93
79
75
76
70
56
40
34
33
33
33
23
16
28
39
33
15
9
13
10
0
-1
10
16
18
16
20
16
1
-8
-7
-10
-19
-21
-15
-13
-16
-15
-15
-25
-31
-33
-39
-49
-53
-47
-48
-60
-77
-82
-82
-87
-101
-114
-114
-116
-129
-141
-152
-164
-173
-184
-196
-199
-196
-197
-207
-213
-218
-225
-240
-255
-257
-252
-250
-255
-256
-252
-253
-258
-261
-264
-262
-259
-253
-248
-238
-225
-222
-222
-215
-204
-197
-196
-192
-177
-161
-156
-150
-139
-124
-121
-119
-100
-85
-82
-78
-61
-54
-58
-62
-55
-53
-59
-62
-54
-56
-61
-58
-52
-59
-53
-42
-39
-39
-30
-17
-17
-12
5
14
7
7
26
33
21
13
13
13
-1
-10
-14
-14
-20
-30
-29
-25
-25
-29
-23
-16
-12
0
16
31
35
45
69
86
88
93
118
142
154
169
192
208
210
220
235
246
255
255
259
267
271
266
253
242
230
220
205
187
167
155
149
141
130
113
104
99
87
67
64
72
69
56
57
61
51
39
36
37
32
27
30
39
42
39
45
51
55
50
50
56
63
66
65
64
61
60
65
62
54
54
70
78
64
52
58
56
38
27
24
18
7
6
8
-2
-16
-14
-19
-39
-54
-54
-59
-72
-81
-85
-85
-90
-97
-108
-121
-129
-134
-140
-149
-156
-161
-165
-167
-172
-174
-186
-201
-208
-206
-204
-204
-200
-198
-208
-212
-197
-186
-193
-200
-193
-176
-165
-168
-172
-169
-167
-159
-144
-134
-136
-135
-115
-90
-80
-84
-78
-58
-43
-44
-37
-16
-3
2
17
39
54
63
67
72
79
90
100
105
116
123
133
141
149
157
164
164
162
168
184
192
184
180
183
179
162
160
164
167
166
164
168
174
173
158
150
149
143
133
136
150
151
142
143
149
146
136
131
132
136
137
136
139
143
148
151
149
146
145
155
158
148
133
132
136
137
129
121
119
113
107
104
99
85
71
64
64
58
49
40
36
36
36
33
26
26
29
26
24
24
20
17
13
12
18
21
24
32
40
43
35
32
39
48
50
50
57
64
80
87
75
56
47
48
36
25
27
36
32
22
21
20
5
-18
-36
-40
-46
-62
-72
-70
-77
-94
-112
-124
-139
-159
-182
-205
-226
-243
-257
-274
-294
-312
-324
-339
-353
-360
-361
-368
-377
-379
-377
-378
-390
-391
-378
-366
-357
-339
-317
-296
-278
-260
-249
-242
-224
-204
-187
-169
-143
-123
-109
-94
-81
-73
-67
-64
-58
-43
-27
-20
-18
-6
8
6
9
18
17
10
19
32
32
30
35
41
43
42
40
47
52
50
53
68
75
70
72
84
89
84
85
91
91
95
106
118
127
131
133
134
137
138
133
125
133
142
145
146
149
147
139
137
139
132
129
129
142
150
151
153
154
152
144
150
155
152
150
161
170
173
175
172
166
170
178
184
184
185
188
194
201
207
207
205
200
200
205
210
215
220
220
221
228
233
232
220
217
227
241
248
254
261
272
276
265
257
252
246
237
238
239
240
236
229
228
228
221
214
207
195
184
178
168
158
146
139
135
124
119
121
112
97
86
77
67
43
20
-2
-27
-57
-83
-106
-130
-160
-189
-215
-249
-288
-324
-357
-387
-422
-451
-475
-501
-523
-546
-576
-608
-631
-645
-669
-689
-693
-687
-690
-695
-688
-679
-671
-657
-640
-626
-608
-578
-545
-525
-505
-477
-444
-415
-395
-373
-341
-315
-293
-270
-248
-233
-218
-201
-183
-167
-159
-141
-120
-107
-96
-88
-79
-67
-46
-30
-21
-10
9
35
56
70
86
102
118
127
143
164
173
177
197
215
222
226
240
246
244
249
258
265
267
264
260
260
260
247
238
238
237
228
213
202
200
198
191
183
181
179
172
163
161
159
155
150
149
148
147
145
131
126
136
141
134
136
148
150
147
152
158
155
148
154
160
154
149
154
155
148
142
151
160
149
138
145
153
146
143
155
163
152
145
157
163
146
135
142
137
123
128
139
135
123
120
119
111
106
107
104
94
92
98
99
86
73
70
65
50
43
52
50
31
11
3
8
-8
-39
-50
-49
-57
-75
-87
-94
-117
-149
-177
-204
-235
-259
-279
-300
-316
-330
-349
-361
-381
-409
-439
-459
-467
-477
-488
-496
-498
-491
-480
-483
-488
-487
-473
-460
-454
-448
-426
-401
-382
-367
-354
-338
-320
-305
-285
-261
-234
-212
-191
-165
-137
-121
-109
-90
-61
-35
-16
2
21
35
36
38
49
56
58
55
68
91
101
100
104
119
129
130
137
150
168
177
184
192
206
222
233
235
235
245
260
273
275
288
305
314
308
310
323
328
318
312
320
325
316
310
305
295
281
268
259
246
233
230
224
214
211
208
200
181
172
174
162
146
142
142
138
134
139
146
148
145
144
151
150
146
148
152
150
148
158
163
162
162
165
169
171
172
171
172
173
175
177
183
184
180
179
186
187
185
190
191
184
184
194
196
196
200
210
206
199
206
206
192
182
180
178
173
170
161
152
151
148
142
139
130
118
110
107
100
86
80
75
60
53
55
49
30
14
3
-16
-35
-49
-63
-88
-116
-140
-165
-193
-218
-250
-288
-323
-361
-404
-446
-490
-541
-593
-635
-676
-712
-747
-791
-827
-848
-868
-895
-915
-913
-905
-898
-882
-858
-838
-817
-793
-764
-734
-695
-657
-619
-579
-524
-474
-442
-406
-359
-310
-270
-233
-195
-151
-115
-86
-56
-25
0
28
64
97
116
139
171
197
207
216
237
255
262
276
294
299
297
296
300
298
296
294
289
285
281
277
268
253
237
226
215
207
197
183
176
170
159
144
134
130
116
102
97
102
97
94
95
88
76
68
70
66
60
59
56
50
46
46
45
36
32
42
52
53
50
51
59
64
61
62
68
75
73
75
78
82
82
82
83
86
94
101
103
113
123
126
126
131
134
131
132
144
148
145
150
159
167
172
178
185
181
184
186
190
197
197
188
179
180
177
166
153
155
160
159
148
135
124
114
97
79
70
63
58
51
46
45
36
15
-5
-17
-27
-40
-53
-66
-76
-87
-93
-108
-142
-165
-177
-192
-215
-242
-264
-282
-306
-329
-346
-360
-379
-399
-414
-412
-417
-433
-440
-432
-428
-437
-431
-411
-396
-393
-381
-359
-336
-325
-315
-295
-272
-258
-244
-233
-217
-200
-184
-168
-139
-117
-106
-95
-74
-66
-64
-62
-53
-41
-29
-19
-19
-13
-1
6
3
4
18
29
28
37
57
68
69
77
88
93
98
107
110
114
123
135
141
140
144
152
163
177
191
203
214
219
216
224
239
243
235
240
255
267
264
265
272
280
280
271
269
280
281
263
261
273
272
257
247
257
255
236
230
230
220
211
202
193
186
179
171
159
149
146
137
121
108
105
109
100
83
73
77
75
72
75
81
82
78
80
80
78
74
73
79
87
95
91
84
87
94
98
90
80
83
91
95
88
85
90
87
78
71
73
66
50
35
36
39
24
14
11
7
-8
-15
-18
-28
-52
-77
-83
-87
-103
-132
-151
-161
-170
-189
-215
-234
-248
-257
-272
-288
-296
-300
-302
-312
-324
-325
-329
-348
-359
-351
-347
-362
-376
-374
-372
-371
-365
-359
-360
-354
-338
-319
-304
-290
-279
-268
-257
-238
-209
-186
-177
-164
-136
-108
-91
-78
-53
-29
-9
9
26
40
52
72
89
101
107
120
134
145
146
143
149
148
150
155
158
149
134
135
152
157
145
133
126
127
127
121
105
93
86
84
73
59
59
64
55
53
71
78
63
41
34
36
35
27
21
12
9
15
16
7
-11
-21
-27
-24
-27
-28
-34
-49
-44
-33
-35
-50
-54
-54
-59
-62
-64
-70
-81
-77
-63
-52
-47
-46
-37
-32
-31
-33
-38
-47
-55
-50
-37
-32
-35
-35
-30
-29
-30
-36
-47
-59
-66
-56
-47
-48
-54
-56
-54
-50
-52
-58
-68
-75
-83
-90
-97
-111
-133
-150
-149
-149
-156
-171
-174
-175
-185
-198
-202
-208
-221
-233
-241
-237
-234
-240
-244
-240
-242
-245
-247
-242
-241
-234
-219
-208
-201
-188
-170
-159
-150
-139
-119
-101
-89
-76
-55
-27
-10
-1
14
35
50
59
66
79
93
99
93
96
107
112
108
101
109
108
103
102
113
116
107
103
107
110
112
112
112
115
122
138
147
147
141
142
143
138
128
124
124
119
119
120
116
106
98
100
93
81
77
76
76
72
75
76
71
71
75
79
81
79
84
94
98
96
106
113
106
104
110
122
126
136
146
145
140
144
148
141
128
121
121
128
134
139
135
133
131
126
111
98
94
85
73
70
66
52
31
10
-4
-15
-33
-55
-71
-75
-85
-104
-119
-126
-135
-147
-153
-157
-172
-185
-187
-189
-195
-206
-217
-225
-227
-218
-210
-211
-212
-200
-185
-179
-176
-168
-152
-135
-123
-105
-86
-71
-62
-45
-24
-11
-8
3
23
38
49
61
75
93
102
105
111
128
140
141
143
155
163
157
149
153
158
156
153
156
160
157
150
143
142
137
121
115
126
126
108
93
98
107
96
73
63
70
73
65
57
54
46
32
29
38
38
28
20
26
35
38
30
25
25
27
30
27
35
44
51
60
70
76
73
70
78
92
101
106
117
125
130
141
147
136
128
140
146
140
136
140
142
142
139
130
125
115
106
105
118
116
101
100
111
107
100
101
94
83
84
103
111
99
94
99
93
78
72
73
60
44
43
54
53
42
37
36
24
12
8
5
1
0
3
6
3
-5
-8
-14
-21
-33
-44
-51
-52
-52
-53
-51
-61
-72
-84
-91
-99
-114
-123
-123
-122
-125
-124
-118
-126
-139
-145
-145
-152
-163
-160
-146
-142
-150
-146
-130
-120
-120
-116
-99
-90
-83
-69
-52
-49
-50
-40
-28
-24
-25
-18
-4
7
11
12
16
18
15
15
16
16
12
15
22
21
13
15
18
9
-10
-10
-4
-11
-22
-31
-39
-46
-46
-52
-69
-84
-89
-92
-95
-102
-103
-104
-111
-113
-110
-111
-119
-127
-119
-113
-120
-130
-126
-120
-125
-123
-110
-102
-100
-93
-83
-78
-75
-72
-76
-80
-73
-64
-65
-69
-63
-43
-40
-56
-64
-58
-63
-85
-96
-90
-86
-97
-107
-105
-107
-117
-137
-158
-168
-169
-170
-179
-191
-198
-190
-188
-205
-220
-227
-236
-251
-255
-246
-248
-257
-257
-247
-252
-272
-279
-280
-284
-282
-266
-254
-251
-242
-228
-226
-227
-213
-196
-195
-190
-169
-151
-143
-131
-111
-97
-95
-89
-73
-65
-57
-50
-37
-24
-9
4
16
25
36
49
68
77
84
94
115
133
143
149
152
149
144
146
149
136
113
103
88
55
6
-30
-60
-102
-141
-143
-123
-88
-48
1
47
98
164
239
313
395
497
588
664
748
835
910
972
1042
1114
1179
1244
1304
1349
1377
1396
1411
1417
1406
1378
1347
1307
1247
1161
1066
963
848
717
577
444
312
166
17
-118
-245
-371
-492
-604
-708
-803
-879
-941
-991
-1026
-1045
-1055
-1060
-1057
-1040
-1019
-1010
-1003
-980
-942
-898
-864
-837
-804
-764
-725
-699
-681
-660
-636
-618
-602
-591
-585
-586
-597
-608
-611
-619
-642
-664
-681
-702
-737
-765
-785
-799
-816
-836
-850
-860
-870
-876
-875
-860
-831
-790
-742
-695
-649
-587
-509
-426
-343
-246
-134
-15
100
207
304
412
522
628
725
835
945
1024
1082
1137
1187
1215
1242
1273
1295
1314
1326
1320
1298
1270
1243
1203
1157
1102
1041
973
915
863
806
742
669
596
521
459
397
346
295
247
209
167
118
73
35
-8
-51
-85
-106
-131
-161
-184
-201
-219
-243
-263
-284
-307
-332
-344
-353
-359
-348
-327
-310
-294
-264
-228
-195
-156
-115
-69
-26
20
69
129
179
221
262
307
342
363
382
401
413
418
430
440
437
425
411
389
360
324
283
239
192
152
113
65
6
-50
-102
-156
-205
-253
-299
-351
-393
-423
-450
-486
-525
-552
-561
-566
-580
-587
-581
-570
-563
-553
-531
-515
-495
-467
-438
-407
-371
-324
-283
-244
-200
-162
-121
-78
-37
-4
31
62
85
108
137
163
174
184
198
215
225
228
229
243
262
264
260
260
264
271
273
271
273
275
276
275
276
274
269
263
269
279
284
279
277
275
276
271
259
253
245
238
234
242
245
232
216
203
186
167
152
145
123
103
90
83
67
47
39
28
12
1
1
-2
-18
-36
-38
-40
-52
-60
-63
-71
-85
-86
-81
-83
-93
-102
-105
-108
-112
-115
-120
-126
-126
-123
-128
-134
-137
-144
-151
-151
-147
-150
-145
-139
-135
-133
-131
-121
-122
-129
-120
-101
-85
-79
-73
-55
-39
-26
-13
1
6
15
29
43
43
46
69
80
79
81
88
88
84
80
83
84
80
78
79
77
65
55
56
60
54
54
66
70
67
76
85
72
50
51
63
54
38
36
43
46
45
42
38
28
15
18
27
26
20
18
24
33
40
37
25
20
30
36
41
47
52
49
47
58
62
57
50
50
60
67
73
68
66
65
68
65
54
53
55
52
46
57
71
68
55
52
64
64
57
58
62
62
58
59
68
76
76
75
83
89
88
80
75
73
69
63
63
53
45
40
41
25
6
0
-3
-17
-32
-35
-38
-47
-56
-69
-78
-88
-95
-104
-116
-120
-123
-133
-143
-143
-139
-148
-161
-163
-163
-171
-179
-188
-193
-190
-185
-180
-177
-173
-172
-166
-159
-162
-163
-160
-160
-160
-149
-132
-122
-124
-121
-110
-101
-96
-96
-95
-96
-88
-76
-63
-56
-57
-55
-55
-50
-41
-39
-45
-47
-40
-41
-51
-56
-55
-59
-65
-73
-66
-54
-49
-54
-53
-40
-28
-30
-37
-32
-23
-12
-8
-6
8
18
24
20
22
25
25
26
31
39
38
35
37
40
42
39
37
34
35
36
45
56
62
61
65
80
92
93
96
103
114
119
124
129
141
150
158
162
159
151
141
136
131
121
109
99
95
95
84
64
45
32
31
28
17
4
5
12
1
-18
-20
-17
-23
-25
-16
-3
-2
-4
4
12
10
6
7
13
24
30
31
34
43
53
52
55
65
72
74
79
88
96
95
100
116
127
132
140
151
151
146
153
163
158
147
144
140
133
125
117
105
95
93
90
87
82
67
51
38
28
16
-1
-6
-9
-14
-25
-33
-35
-40
-47
-53
-60
-60
-58
-59
-52
-39
-29
-22
-21
-13
-6
-1
12
22
23
31
54
63
64
69
80
91
103
113
122
127
127
127
130
132
129
129
138
140
140
147
151
147
145
147
151
146
147
146
147
152
160
163
153
142
141
139
126
110
101
94
82
76
72
57
42
27
19
3
-13
-31
-53
-78
-85
-88
-108
-126
-129
-130
-144
-159
-156
-151
-161
-166
-156
-154
-162
-168
-163
-153
-146
-145
-138
-133
-126
-119
-118
-119
-117
-111
-107
-108
-111
-109
-110
-117
-130
-134
-132
-137
-155
-170
-176
-184
-197
-208
-215
-223
-232
-230
-224
-233
-244
-250
-251
-252
-256
-255
-253
-255
-252
-237
-231
-232
-227
-220
-206
-192
-176
-161
-151
-136
-116
-102
-88
-75
-67
-49
-30
-21
-16
-5
8
12
6
11
18
21
27
34
39
37
39
44
47
39
37
38
39
38
45
60
54
35
32
39
39
26
23
26
22
10
11
10
1
-14
-25
-23
-29
-38
-50
-55
-59
-72
-81
-82
-88
-93
-91
-89
-85
-85
-91
-98
-104
-98
-92
-96
-98
-81
-57
-46
-43
-45
-43
-38
-26
-17
-13
-8
4
18
30
37
40
35
40
54
68
71
75
78
92
101
100
93
94
96
94
94
97
90
84
70
52
41
40
28
14
7
8
3
-8
-15
-24
-36
-50
-65
-76
-82
-82
-81
-82
-87
-94
-96
-106
-114
-115
-114
-122
-120
-107
-92
-93
-88
-70
-53
-48
-45
-36
-29
-25
-17
-1
16
31
42
46
53
65
65
69
78
85
86
92
104
109
99
95
102
111
111
98
84
65
-50
-232
-305
-283
-303
-350
-359
-337
-336
-354
-334
-264
-176
-84
4
89
156
207
237
256
273
278
279
272
250
208
133
40
-46
-122
-186
-230
-256
-274
-300
-322
-332
-346
-358
-354
-328
-292
-253
-207
-156
-103
-49
5
74
152
234
314
395
469
532
600
663
708
737
759
779
789
785
772
757
733
685
628
579
528
454
370
300
234
151
62
-18
-93
-176
-251
-319
-386
-456
-516
-566
-612
-646
-666
-673
-681
-676
-664
-648
-640
-637
-619
-586
-558
-537
-508
-471
-430
-396
-364
-326
-295
-261
-224
-174
-134
-106
-82
-56
-24
10
37
55
76
101
123
139
144
144
146
148
144
140
137
138
134
123
112
98
84
65
45
37
36
36
37
44
53
57
61
70
86
95
110
131
159
188
208
225
249
272
288
301
317
328
335
336
335
329
320
306
286
271
263
256
236
202
180
173
157
127
110
108
97
82
87
100
108
117
140
166
194
227
259
282
315
366
410
435
459
473
462
441
425
412
410
425
449
477
513
574
662
772
873
948
1002
1031
1041
1037
1004
924
791
630
428
178
-89
-345
-613
-896
-1168
-1408
-1614
-1784
-1906
-1974
-1996
-1988
-1978
-1963
-1938
-1897
-1834
-1754
-1647
-1515
-1361
-1203
-1051
-906
-755
-615
-496
-386
-269
-155
-57
44
150
242
307
353
392
424
442
448
442
436
431
416
387
343
307
280
250
221
205
208
213
207
202
210
221
228
241
258
276
282
292
308
322
332
335
345
354
361
373
381
385
385
388
383
371
357
340
308
278
266
247
221
203
195
181
173
177
186
185
183
191
205
210
207
224
251
264
277
300
317
325
335
357
365
357
346
354
363
354
333
319
316
304
288
270
245
215
186
152
122
89
52
24
-4
-30
-54
-70
-96
-125
-150
-166
-179
-200
-212
-212
-208
-203
-200
-200
-202
-206
-208
-209
-213
-229
-242
-243
-239
-241
-252
-258
-265
-273
-288
-319
-353
-373
-395
-440
-486
-516
-541
-575
-604
-618
-636
-663
-682
-694
-708
-720
-717
-699
-682
-671
-655
-623
-586
-555
-521
-484
-446
-403
-360
-319
-285
-255
-226
-187
-144
-107
-80
-52
-19
12
39
68
91
106
122
132
140
153
161
165
169
175
170
160
156
166
175
165
151
149
151
143
131
126
122
111
103
108
107
86
65
52
45
32
24
11
-9
-32
-45
-50
-63
-86
-104
-108
-105
-112
-123
-130
-137
-153
-160
-162
-168
-178
-179
-178
-177
-172
-166
-155
-150
-148
-149
-154
-156
-144
-127
-119
-117
-106
-92
-80
-81
-84
-80
-70
-62
-58
-53
-46
-50
-54
-47
-35
-32
-47
-57
-51
-41
-43
-51
-56
-56
-55
-61
-69
-74
-81
-80
-80
-83
-90
-94
-96
-106
-118
-116
-107
-101
-105
-101
-91
-82
-74
-66
-56
-48
-40
-27
-13
-7
-2
6
17
25
26
24
24
25
23
24
29
33
30
24
21
24
27
17
2
-2
0
-6
-14
-15
-9
-8
-15
-22
-34
-33
-21
-9
-2
16
38
48
49
51
64
73
82
93
116
149
177
184
185
200
219
221
221
232
247
259
266
271
280
281
275
265
256
244
233
220
209
200
188
179
169
159
145
126
105
90
88
82
73
61
47
36
27
10
-7
-18
-24
-41
-62
-79
-86
-98
-101
-97
-108
-117
-117
-124
-134
-127
-111
-101
-94
-81
-75
-75
-65
-55
-50
-48
-33
-11
6
14
19
34
51
59
61
67
81
89
87
96
108
114
112
115
115
115
120
112
107
110
108
101
99
99
89
88
100
107
102
96
97
93
76
54
33
19
11
13
11
1
1
10
2
-28
-60
-81
-90
-98
-105
-104
-102
-110
-120
-124
-125
-130
-137
-134
-119
-103
-94
-89
-74
-54
-29
-5
15
41
62
79
95
109
123
130
138
147
162
166
156
148
147
144
127
109
94
82
72
60
38
14
5
-3
-17
-30
-30
-37
-52
-60
-66
-74
-77
-73
-68
-62
-57
-55
-49
-37
-28
-16
6
22
33
50
61
62
70
93
109
107
107
113
114
112
116
117
113
113
123
127
127
122
115
114
118
121
119
111
102
104
106
99
88
83
81
71
59
61
61
57
47
41
44
49
45
31
21
23
29
29
18
13
10
1
-10
-21
-31
-43
-49
-51
-58
-64
-65
-72
-83
-93
-102
-108
-102
-100
-111
-120
-123
-129
-143
-156
-158
-163
-173
-169
-158
-155
-162
-178
-182
-176
-177
-190
-195
-185
-179
-174
-163
-150
-140
-141
-141
-135
-133
-134
-122
-109
-98
-85
-72
-58
-47
-43
-40
-29
-23
-18
-5
5
9
17
41
67
61
32
23
34
33
20
45
79
63
32
41
74
103
161
256
340
394
423
415
383
346
324
303
279
254
226
198
163
119
79
49
19
-13
-37
-57
-73
-85
-85
-82
-79
-73
-61
-52
-48
-43
-43
-40
-29
-8
14
31
44
63
81
86
83
82
81
89
108
123
121
117
113
109
95
73
53
33
20
12
8
1
-13
-21
-35
-52
-61
-68
-75
-85
-93
-99
-107
-120
-137
-149
-162
-178
-188
-198
-209
-219
-216
-221
-231
-238
-242
-241
-251
-259
-256
-246
-240
-244
-239
-219
-208
-205
-200
-186
-172
-167
-153
-141
-135
-126
-115
-107
-104
-98
-100
-102
-96
-86
-84
-92
-103
-99
-94
-101
-115
-117
-109
-109
-114
-114
-112
-122
-132
-133
-131
-137
-145
-142
-146
-154
-160
-149
-140
-141
-138
-133
-124
-113
-97
-81
-66
-49
-24
1
21
35
47
57
75
96
114
125
136
158
173
175
181
199
206
207
214
225
232
236
237
242
250
254
250
258
270
274
275
281
285
277
280
290
283
259
235
220
207
201
197
190
180
170
165
164
154
142
144
159
175
181
183
199
221
225
216
212
214
219
219
215
216
218
212
205
198
186
167
151
137
121
113
110
104
91
73
63
49
37
30
24
14
7
-1
-11
-24
-42
-60
-84
-95
-98
-102
-106
-106
-116
-129
-129
-131
-146
-164
-169
-161
-156
-152
-154
-152
-150
-153
-158
-170
-176
-173
-163
-156
-155
-144
-130
-126
-131
-129
-121
-118
-122
-117
-103
-96
-101
-102
-96
-88
-101
-118
-124
-126
-133
-135
-132
-136
-146
-155
-154
-155
-161
-162
-159
-155
-157
-162
-166
-172
-180
-192
-196
-194
-188
-185
-175
-158
-141
-133
-133
-123
-104
-94
-86
-69
-43
-22
-5
12
30
49
61
73
86
104
120
124
126
135
151
162
166
169
168
167
171
185
193
192
195
208
217
216
211
209
209
212
215
225
230
231
232
242
250
253
251
248
247
249
249
253
253
247
245
239
231
226
229
222
214
215
212
199
187
180
180
167
151
148
145
136
126
116
103
87
68
49
35
21
7
-6
-20
-32
-44
-58
-67
-78
-84
-91
-102
-110
-104
-95
-99
-102
-102
-111
-128
-136
-134
-133
-132
-129
-119
-105
-104
-103
-102
-102
-105
-111
-106
-95
-94
-95
-88
-78
-69
-67
-67
-74
-80
-83
-93
-111
-124
-129
-140
-160
-182
-195
-208
-226
-253
-273
-287
-298
-309
-321
-323
-328
-333
-330
-323
-317
-310
-299
-272
-236
-214
-195
-168
-136
-108
-81
-54
-29
-3
20
40
52
58
59
61
63
61
55
63
76
70
56
57
58
45
30
27
28
26
24
20
14
16
22
22
20
21
31
43
48
56
67
81
85
86
100
114
110
107
118
132
136
138
149
158
161
158
159
171
184
184
178
181
187
184
171
163
162
155
146
143
146
142
131
115
108
106
94
80
66
61
62
51
37
26
19
9
-3
-11
-17
-26
-37
-46
-48
-43
-50
-63
-64
-59
-58
-58
-51
-38
-32
-29
-34
-34
-35
-28
-21
-8
