11111,11111
0,0
23101,30741
23772,31519
24241,32066
24450,32370
24349,32167
23899,31631
23246,30820
22448,29791
21654,28744
20850,27850
20326,27123
19965,26704
19721,26408
19716,26343
19832,26601
20229,27105
20718,27731
21162,28360
21727,28970
22276,29728
22975,30669
23679,31602
24429,32570
25156,33421
25674,34072
25981,34471
26028,34435
25770,34231
25411,33711
24933,33050
24297,32279
23522,31240
22529,30105
21641,28856
20664,27615
19871,26608
19129,25666
18519,24972
18227,24569
18029,24331
18062,24469
18323,24769
18613,25286
19220,26028
19854,26821
20613,27905
21417,28980
22203,30083
23260,31398
24337,32750
25490,34365
26760,35948
27810,37209
28721,38282
29169,38789
29342,39107
29515,39320
29660,39493
30034,39953
30495,40526
31030,41221
31790,42096
32620,43082
33374,43822
33789,44069
33821,43882
34035,44056
34767,44913
36397,46918
38975,50000
41911,53449
44510,56442
46650,58879
48403,60806
49650,62345
50835,63685
52008,65025
53318,66209
54712,67784
56438,69793
58706,72246
61545,75370
64913,79039
68388,82784
72014,86418
75486,89953
78705,93166
81573,95953
83740,98101
85805,99736
87491,101108
88897,102204
90122,103051
91174,103804
92191,104476
93240,105207
94256,105905
95305,106699
96529,107586
97702,108485
98812,109358
99905,110212
101017,110920
102059,111576
102900,112194
103759,112724
104421,113114
105058,113476
105519,113750
105869,113967
106195,114089
106466,114215
106750,114283
106974,114373
107196,114491
107448,114578
107714,114683
107908,114738
108109,114801
108352,114943
108508,114999
108645,115056
108809,115157
108941,115169
112073,116660
113124,116981
113189,116985
114081,117370
114174,117399
114161,117402
115165,117839
115192,117849
115188,117820
115202,117813
115416,117808
115515,117879
115539,117872
115514,117893
115485,117844
115499,117775
115512,117870
115567,117864
115617,117875
115536,117836
115536,117790
115591,117844
115631,117852
115619,117818
115622,117853
115574,117794
115607,117838
115672,117840
115665,117854
115672,117841
115612,117793
115619,117793
115691,117796
115669,117839
115659,117807
115657,117777
115692,117767
115749,117831
115740,117807
115765,117821
115707,117784
115770,117830
115815,117827
115825,117853
115823,117822
115767,117796
115826,117868
115880,117840
115881,117860
115853,117826
115798,117807
115892,117822
115896,117838
115898,117843
115892,117809
115864,117761
115894,117839
115935,117822
115935,117819
115924,117794
115916,117796
115944,117811
116017,117871
116000,117852
115935,117821
115971,117775
116020,117859
116034,117846
115995,117818
116033,117796
115953,117827
116013,117823
116041,117834
116063,117846
116002,117814
115983,117762
116023,117841
116042,117811
116011,117782
115983,117786
115919,117791
115966,117764
116020,117785
115982,117783
115928,117739
115892,117719
115981,117744
116007,117793
115987,117726
115963,117740
115915,117727
115999,117741
116008,117779
116008,117702
116007,117732
115948,117724
115980,117731
116018,117753
116033,117724
116013,117720
116007,117705
116022,117743
116064,117748
116082,117754
116020,117719
115992,117730
116064,117709
116093,117733
116066,117755
116012,117704
116015,117666
116084,117732
116072,117748
116028,117686
116005,117671
115998,117651
116031,117697
116045,117691
116057,117701
115992,117645
115971,117634
116078,117699
116085,117707
116043,117694
115992,117607
116004,117616
116035,117638
116089,117687
116049,117636
116065,117608
116026,117650
116102,117662
116154,117655
116152,117661
116082,117657
116094,117619
116159,117713
116171,117682
116134,117684
116127,117651
116137,117608
116238,117703
116206,117738
116220,117694
116137,117687
116223,117696
116227,117694
116253,117730
116236,117698
116228,117673
116192,117682
116259,117741
116302,117721
116256,117702
116254,117660
116223,117664
116274,117704
116315,117684
116284,117717
116203,117666
116249,117662
116331,117711
116316,117731
116290,117680
116301,117662
116247,117689
116335,117698
116367,117708
116306,117698
116291,117701
116304,117725
116310,117711
116354,117731
116353,117734
116280,117684
116338,117692
116382,117735
116365,117733
116393,117707
116334,117692
116331,117695
116359,117753
116412,117728
116390,117749
116344,117707
116362,117718
116439,117756
116402,117745
116427,117722
116360,117734
116344,117680
116447,117765
116396,117719
116398,117721
116341,117687
116351,117688
116422,117729
116405,117719
116402,117739
116360,117686
116403,117723
116455,117779
116455,117723
116451,117722
116415,117719
116414,117701
116473,117753
116509,117738
116426,117726
116393,117690
116451,117727
116505,117749
116465,117717
116433,117722
116367,117678
116415,117694
116447,117720
116453,117701
116413,117698
116365,117649
116406,117706
116440,117718
116443,117695
116427,117697
116402,117687
116419,117652
116508,117712
116464,117733
116464,117679
116393,117675
116469,117708
116521,117720
116473,117732
116470,117703
116397,117657
116435,117691
116503,117700
116525,117747
116499,117673
116478,117672
116473,117692
116560,117759
116525,117708
116545,117717
116474,117690
116534,117689
116601,117752
116559,117741
116561,117691
116529,117679
116554,117679
116578,117740
116579,117753
116585,117682
116519,117658
116542,117715
116580,117725
116584,117700
116520,117662
116492,117666
116503,117635
116555,117694
116521,117696
116519,117673
116443,117610
116497,117701
116528,117674
116557,117650
116505,117688
116459,117619
116535,117669
116576,117676
116556,117694
116559,117686
116504,117637
116558,117660
116639,117729
116634,117693
116599,117707
116560,117631
116627,117717
116661,117743
116666,117712
116646,117718
116555,117671
116677,117722
116688,117731
116681,117732
116675,117712
116647,117683
116672,117698
116739,117732
116714,117739
116672,117702
116649,117679
116680,117684
116741,117735
116677,117715
116707,117710
116645,117689
116709,117700
116728,117753
116736,117684
116750,117722
116682,117703
116723,117738
116781,117753
116809,117747
116768,117731
116750,117706
116790,117740
116840,117778
116854,117763
116833,117750
116765,117738
116847,117768
116889,117781
116886,117769
116865,117752
116795,117694
116893,117760
116904,117780
116896,117787
116893,117710
116807,117730
116874,117777
116933,117772
116867,117770
116901,117752
116847,117707
116882,117765
116933,117765
116868,117731
116899,117757
116858,117734
116921,117778
116953,117771
116964,117759
116951,117772
116878,117745
116967,117792
116995,117790
116975,117801
116938,117762
116936,117740
116954,117759
116972,117793
116951,117750
116875,117752
116877,117694
116891,117731
116935,117725
116913,117745
116889,117691
116784,117689
116851,117673
116900,117741
116800,117686
116775,117669
116741,117624
116852,117678
116865,117721
116829,117654
116821,117663
116803,117678
116852,117656
116933,117733
116883,117694
116850,117677
116868,117663
116897,117726
116960,117718
116927,117687
116914,117699
116899,117698
116939,117738
116979,117764
116964,117724
116916,117705
116903,117703
116992,117732
116990,117747
116981,117760
116948,117729
116918,117698
116992,117746
117030,117759
117028,117743
116961,117725
116974,117723
117010,117759
117054,117757
117038,117739
117008,117733
116977,117708
117039,117762
117082,117768
117052,117747
117025,117729
117009,117725
117054,117753
117088,117766
117070,117744
117048,117728
117003,117738
117064,117728
117138,117791
117115,117732
117069,117762
117026,117717
117091,117728
117131,117765
117104,117752
117059,117714
117059,117693
117146,117779
117108,117789
117113,117752
117064,117696
117070,117720
117096,117790
117085,117730
117108,117775
117067,117716
117056,117689
117117,117759
117129,117721
117098,117775
117062,117717
117022,117706
117110,117707
117142,117750
117095,117707
117105,117723
117081,117724
117118,117750
117129,117733
117113,117758
117070,117713
117123,117703
117139,117772
117133,117737
117151,117760
117076,117704
117128,117692
117201,117768
117169,117787
117200,117745
117143,117719
117139,117696
117233,117771
117192,117734
117180,117781
117145,117715
117151,117742
117204,117752
117231,117727
117181,117785
117160,117722
117178,117716
117220,117778
117261,117756
117186,117758
117150,117727
117190,117733
117242,117769
117240,117759
117202,117714
117183,117711
117167,117730
117217,117757
117234,117724
117200,117735
117170,117705
117167,117710
117215,117755
117225,117706
117220,117761
117199,117715
117187,117736
117234,117736
117280,117719
117237,117755
117182,117705
117209,117710
117293,117741
117258,117772
117244,117720
117204,117725
117214,117726
117251,117777
117305,117704
117232,117748
117220,117727
117235,117709
117271,117770
117310,117752
117290,117716
117241,117710
117260,117746
117269,117747
117322,117747
117279,117755
117227,117693
117260,117763
117323,117752
117326,117760
117311,117728
117308,117728
117278,117717
117356,117793
117368,117741
117308,117734
117311,117700
117327,117775
117382,117783
117402,117755
117364,117771
117269,117721
117337,117748
117376,117754
117375,117748
117360,117752
117313,117713
117342,117714
117388,117723
117401,117758
117337,117704
117306,117719
117334,117753
117392,117742
117404,117750
117356,117729
117349,117709
117364,117731
117445,117777
117399,117762
117397,117743
117369,117716
117363,117742
117417,117783
117396,117726
117392,117786
117301,117686
117328,117722
117391,117763
117369,117739
117348,117734
117331,117692
117372,117731
117419,117740
117425,117737
117416,117725
117371,117733
117393,117718
117475,117766
117465,117757
117431,117727
117369,117737
117468,117781
117455,117765
117480,117773
117469,117764
117410,117724
117448,117732
117491,117763
117450,117768
117451,117722
117397,117698
117401,117708
117425,117748
117425,117719
117375,117678
117256,117625
117196,117612
117148,117572
116981,117520
116831,117383
116659,117312
116560,117230
116489,117219
116374,117211
116297,117143
116190,117084
116181,117067
116234,117096
116186,117092
116211,117068
116134,117051
116200,117123
116262,117125
116307,117171
116314,117155
116282,117141
116384,117232
116439,117227
116524,117262
116519,117263
116511,117240
116595,117282
116662,117345
116657,117318
116720,117359
116671,117376
116767,117389
116819,117418
116866,117402
116829,117443
116810,117362
116894,117460
116976,117473
116918,117469
116966,117467
116886,117419
117011,117505
117019,117526
117045,117492
116993,117490
116999,117500
117066,117537
117051,117553
117097,117530
117056,117531
117061,117507
117105,117537
117134,117570
117162,117544
117082,117562
117107,117527
117099,117533
117185,117582
117161,117598
117107,117541
117109,117515
117155,117589
117199,117589
117236,117594
117168,117594
117128,117546
117239,117622
117253,117590
117246,117606
117244,117599
117189,117608
117299,117638
117283,117681
117307,117621
117287,117628
117228,117583
117276,117625
117323,117642
117281,117649
117290,117597
117193,117565
117250,117626
117304,117617
117298,117593
117245,117608
117223,117585
117289,117599
117328,117652
117287,117584
117272,117589
117245,117598
117313,117632
117319,117620
117307,117637
117265,117577
117279,117606
117337,117595
117367,117646
117320,117617
117273,117594
117308,117582
117314,117615
117398,117618
117358,117651
117334,117589
117318,117611
117392,117617
117418,117665
117375,117621
117379,117624
117308,117626
117427,117663
117470,117685
117439,117623
117404,117657
117373,117624
117459,117666
117478,117676
117440,117640
117454,117643
117373,117655
117483,117675
117487,117666
117436,117644
117413,117628
117431,117597
117447,117670
117466,117663
117461,117615
117437,117635
117385,117616
117479,117641
117467,117653
117484,117632
117423,117622
117383,117594
117488,117641
117478,117670
117462,117604
117428,117620
117385,117628
117471,117591
117501,117629
117459,117621
117439,117593
117433,117600
117469,117623
117487,117621
117451,117621
117470,117585
117421,117632
117518,117646
117505,117636
117493,117630
117468,117601
117419,117600
117532,117661
117503,117626
117531,117629
117480,117597
117460,117599
117555,117642
117527,117640
117472,117589
117459,117569
117435,117593
117519,117610
117556,117629
117524,117617
117442,117574
117460,117558
117547,117627
117506,117638
117512,117587
117467,117583
117492,117573
117512,117622
117514,117593
117506,117626
117428,117538
117487,117588
117536,117606
117557,117626
117558,117603
117475,117580
117485,117550
117530,117611
117532,117607
117482,117595
117454,117517
117485,117581
117554,117569
117525,117605
117497,117532
117444,117535
117500,117524
117520,117588
117475,117556
117506,117573
117451,117529
117498,117546
117499,117576
117522,117592
117509,117522
117478,117570
117502,117578
117586,117599
117583,117576
117524,117584
117489,117535
117530,117558
117609,117605
117597,117583
117578,117614
117519,117553
117567,117581
117634,117631
117619,117620
117588,117620
117531,117533
117592,117596
117615,117593
117616,117594
117581,117579
117530,117547
117588,117562
117595,117602
117614,117579
117602,117586
117565,117558
117583,117568
117581,117574
117605,117574
117570,117534
117480,117481
117510,117529
117546,117532
117529,117523
117451,117504
117346,117420
117309,117417
117303,117392
117174,117346
117056,117285
116888,117194
116864,117210
116874,117195
116856,117171
116758,117156
116712,117106
116763,117158
116813,117170
116848,117199
116855,117193
116851,117200
116922,117187
117019,117259
117058,117298
117063,117258
117039,117277
117077,117291
117143,117333
117171,117318
117153,117368
117092,117281
117149,117377
117195,117382
117231,117355
117198,117372
117163,117302
117242,117387
117245,117403
117271,117402
117254,117410
117204,117369
117261,117370
117315,117431
117322,117405
117288,117408
117250,117354
117311,117417
117359,117434
117350,117420
117329,117383
117314,117368
117330,117422
117387,117439
117359,117443
117352,117410
117354,117375
117392,117449
117443,117468
117471,117474
117433,117458
117416,117444
117459,117441
117505,117495
117494,117484
117489,117448
117450,117451
117488,117461
117533,117506
117527,117481
117487,117483
117389,117400
117516,117484
117548,117506
117502,117494
117469,117440
117472,117412
117462,117486
117502,117493
117513,117454
117488,117468
117396,117449
117494,117472
117527,117462
117505,117457
117483,117430
117437,117463
117469,117409
117535,117461
117503,117444
117426,117422
117401,117372
117484,117434
117441,117435
117452,117429
117402,117379
117369,117345
117451,117388
117461,117415
117404,117409
117407,117362
117421,117384
117437,117370
117465,117406
117489,117422
117454,117391
117461,117374
117452,117429
117501,117431
117509,117394
117471,117400
117464,117396
117516,117411
117552,117434
117532,117438
117485,117386
117504,117423
117541,117441
117559,117420
117601,117471
117506,117394
117505,117410
117543,117398
117609,117462
117556,117447
117522,117402
117539,117411
117598,117422
117597,117466
117559,117423
117549,117380
117524,117398
117551,117418
117611,117462
117539,117431
117528,117390
117537,117416
117579,117407
117609,117450
117564,117461
117549,117419
117529,117397
117586,117438
117629,117432
117647,117451
117581,117411
117561,117415
117622,117413
117688,117450
117606,117450
117606,117405
117572,117430
117631,117430
117652,117469
117644,117443
117601,117437
117613,117418
117694,117490
117673,117463
117679,117487
117603,117436
117626,117416
117668,117473
117717,117484
117674,117435
117643,117451
117631,117437
117672,117459
117719,117479
117677,117480
117645,117438
117665,117430
117686,117489
117717,117436
117719,117476
117678,117441
117711,117445
117728,117502
117764,117462
117731,117505
117680,117440
117683,117444
117762,117499
117724,117489
117746,117457
117689,117453
117674,117431
117715,117454
117760,117463
117696,117470
117673,117432
117698,117447
117726,117436
117708,117465
117686,117446
117691,117423
117690,117397
117723,117473
117718,117428
117718,117472
117697,117433
117661,117398
117749,117479
117730,117456
117735,117444
117707,117413
117688,117416
117724,117460
117720,117415
117749,117444
117666,117389
117677,117393
117755,117434
117731,117455
117740,117403
117673,117430
117686,117381
117761,117459
117746,117433
117706,117426
117643,117388
117673,117402
117723,117404
117738,117388
117685,117439
117641,117388
117694,117386
117728,117402
117725,117378
117683,117387
117625,117352
117588,117362
117638,117364
117643,117336
117612,117359
117546,117315
117553,117285
117584,117346
117520,117287
117498,117287
117386,117211
117312,117191
117363,117224
117299,117156
117193,117109
117102,117055
117044,117078
117083,117091
117076,117064
117012,117042
116998,117006
117071,117080
117113,117084
117096,117083
117163,117075
117120,117099
117151,117089
117258,117177
117247,117147
117274,117176
117220,117147
117261,117146
117348,117189
117356,117223
117338,117188
117262,117172
117368,117232
117405,117232
117388,117207
117395,117237
117352,117177
117392,117237
117447,117255
117466,117225
117418,117267
117380,117184
117430,117245
117505,117256
117468,117241
117467,117277
117397,117203
117469,117227
117510,117282
117525,117285
117492,117280
117446,117204
117487,117286
117545,117300
117541,117271
117517,117240
117455,117240
117507,117244
117527,117256
117465,117210
117479,117228
117396,117180
117458,117218
117489,117254
117441,117235
117458,117205
117374,117196
117435,117185
117465,117221
117460,117260
117420,117174
117379,117186
117428,117215
117474,117230
117437,117231
117449,117236
117381,117177
117473,117204
117505,117261
117522,117265
117499,117242
117434,117198
117493,117277
117538,117282
117526,117275
117517,117260
117466,117192
117505,117285
117532,117269
117570,117282
117539,117267
117465,117252
117519,117235
117570,117260
117564,117278
117527,117261
117514,117230
117548,117285
117592,117302
117619,117270
117557,117260
117569,117239
117606,117281
117681,117337
117631,117328
117623,117269
117577,117291
117642,117311
117685,117337
117658,117333
117644,117312
117579,117293
117685,117315
117680,117374
117721,117327
117666,117311
117635,117310
117684,117324
117756,117388
117699,117326
117690,117318
117673,117312
117709,117371
117754,117378
117763,117338
117697,117362
117667,117325
117730,117349
117766,117363
117756,117324
117691,117333
117659,117293
117770,117366
117771,117363
117763,117354
117729,117352
117720,117353
117743,117325
117782,117376
117762,117303
117717,117308
117706,117319
117745,117324
117819,117359
117759,117307
117747,117337
117706,117294
117747,117323
117836,117356
117734,117372
117720,117314
117710,117321
117803,117343
117806,117393
117794,117318
117771,117360
117741,117317
117760,117359
117801,117360
117765,117350
117764,117301
117773,117318
117794,117323
117815,117364
117816,117341
117739,117318
117729,117274
117795,117356
117840,117356
117772,117336
117750,117296
117713,117295
117764,117328
117819,117336
117768,117332
117731,117309
117727,117279
117768,117299
117794,117326
117800,117317
117708,117273
117705,117293
117805,117338
117812,117344
117790,117327
117790,117296
117757,117324
117822,117344
117832,117347
117835,117342
117805,117326
117767,117313
117867,117346
117863,117348
117835,117344
117823,117343
117752,117285
117849,117374
117903,117347
117847,117356
117794,117349
117812,117313
117854,117379
117884,117366
117893,117367
117806,117326
117833,117306
117874,117363
117917,117376
117874,117380
117869,117343
117835,117377
117933,117360
117931,117404
117866,117349
117846,117323
117798,117335
117858,117330
117849,117320
117805,117313
117685,117282
117573,117174
117585,117188
117506,117128
117338,117075
117160,116943
117071,116940
117012,116893
116990,116892
116917,116852
116878,116819
116852,116833
116941,116860
116921,116869
116913,116870
116921,116843
116923,116859
117072,116958
117054,116955
117091,116984
117107,116932
117167,116986
117243,117016
117304,117066
117317,117077
117343,117094
117364,117071
117455,117168
117479,117150
117506,117132
117491,117163
117498,117140
117591,117235
117627,117213
117579,117204
117577,117170
117589,117224
117672,117227
117684,117247
117685,117249
117598,117201
117603,117253
117727,117250
117706,117263
117705,117269
117647,117214
117702,117264
117743,117264
117801,117307
117758,117286
117707,117246
117724,117226
117762,117307
117779,117288
117795,117267
117712,117273
117751,117290
117801,117263
117771,117290
117788,117296
117717,117255
117764,117257
117784,117266
117827,117261
117808,117260
117713,117266
117735,117214
117812,117300
117785,117279
117766,117268
117695,117227
117769,117241
117782,117279
117791,117265
117781,117229
117742,117231
117741,117246
117807,117264
117810,117287
117775,117241
117739,117219
117733,117253
117774,117247
117812,117247
117732,117257
117721,117199
117746,117236
117791,117259
117798,117224
117758,117277
117696,117204
117769,117224
117803,117306
117813,117263
117779,117227
117749,117199
117770,117243
117848,117269
117836,117243
117774,117244
117756,117207
117764,117264
117853,117243
117829,117238
117773,117262
117733,117211
117809,117265
117830,117254
117829,117234
117807,117253
117753,117220
117791,117252
117834,117281
117873,117292
117825,117246
117782,117213
117839,117253
117904,117283
117903,117237
117846,117269
117831,117183
117820,117249
117883,117287
117894,117297
117871,117269
117798,117255
117832,117215
117892,117280
117832,117246
117824,117215
117765,117209
117781,117193
117838,117252
117809,117230
117789,117231
117706,117166
117768,117215
117822,117245
117784,117195
117813,117214
117747,117174
117798,117183
117873,117234
117790,117231
117810,117209
117754,117183
117790,117210
117839,117237
117860,117208
117806,117219
117803,117165
117808,117204
117836,117242
117854,117242
117845,117192
117802,117198
117843,117230
117906,117266
117914,117245
117878,117223
117809,117220
117879,117203
117902,117264
117871,117250
117884,117239
117794,117204
117876,117236
117923,117261
117919,117237
117890,117256
117837,117176
117896,117257
117942,117271
117898,117237
117895,117239
117854,117201
117881,117215
117948,117252
117946,117268
117891,117213
117857,117194
117922,117245
117958,117255
117912,117240
117935,117238
117842,117250
117936,117234
117938,117276
117961,117256
117934,117255
117870,117210
117970,117276
117962,117301
117967,117276
117934,117213
117900,117234
117952,117285
117985,117290
117978,117244
117943,117243
117935,117256
117983,117297
117985,117284
118003,117269
117961,117270
117920,117235
118007,117274
117977,117288
118014,117249
117941,117263
117880,117200
117942,117255
117970,117246
117928,117237
117877,117201
117861,117158
117806,117181
117803,117152
117682,117107
117529,116986
117320,116890
117197,116841
117030,116781
116887,116695
116773,116626
116650,116583
116658,116561
116662,116542
116584,116561
116563,116507
116510,116488
116580,116561
116610,116551
116651,116589
116597,116571
116627,116560
116749,116643
116831,116666
116843,116683
116854,116673
116916,116708
117015,116777
117075,116793
117100,116838
117078,116819
117132,116798
117206,116904
117283,116920
117233,116906
117254,116890
117265,116874
117318,116943
117378,116952
117392,116938
117346,116926
117326,116936
117439,116968
117421,116999
117411,116946
117413,116954
117390,116949
117446,116969
117468,116992
117489,116983
117431,116945
117469,116971
117518,117018
117552,117058
117553,116999
117505,117023
117493,116988
117598,117032
117606,117067
117580,116994
117589,117016
117514,117029
117589,117026
117587,117067
117583,117029
117559,117022
117509,117013
117618,117061
117600,117072
117577,117052
117541,117002
117542,117006
117564,117017
117588,117050
117593,117032
117537,116985
117534,117001
117600,117013
117641,117048
117550,117001
117575,117000
117545,117000
117582,117011
117627,117050
117591,117000
117566,117001
117536,116987
117642,117050
117600,117036
117592,117037
117590,116967
117601,117044
117641,117019
117669,117032
117628,117036
117588,116999
117629,117023
117662,117029
117673,117061
117647,117017
117593,117023
117635,117028
117671,117065
117716,117017
117651,117052
117634,117005
117669,117014
117679,117044
117708,117011
117696,117055
117619,116988
117684,117016
117693,117036
117722,117067
117674,117016
117682,117033
117651,117055
117739,117082
117728,117048
117716,117071
117641,117023
117704,117023
117749,117066
117746,117065
117722,117046
117677,117016
117687,117059
117767,117044
117752,117084
117757,117021
117655,117010
117724,117017
117768,117081
117738,117059
117750,117034
117669,117023
117757,117073
117782,117067
117780,117023
117794,117097
117708,117012
117763,117057
117837,117098
117798,117084
117787,117061
117720,117030
117721,117035
117803,117102
117797,117066
117781,117055
117703,117007
117749,117052
117788,117062
117776,117040
117746,117029
117690,116994
117741,117010
117789,117049
117753,117046
117739,116999
117694,116990
117761,117022
117818,117055
117779,117022
117802,117026
117694,117007
117774,117044
117801,117056
117761,117034
117790,117006
117751,116995
117753,117021
117798,117062
117779,117051
117759,117028
117684,116987
117710,117016
117759,117019
117774,117004
117719,117013
117648,116945
117705,116993
117737,116987
117732,116982
117698,116936
117639,116925
117666,116955
117737,116954
117738,116994
117705,116951
117666,116918
117724,116968
117736,117016
117722,116966
117727,116971
117688,116943
117696,116942
117763,116978
117753,116949
117726,116976
117662,116917
117730,116924
117750,117000
117718,116962
117743,116954
117676,116901
117705,116960
117729,116964
117763,116942
117679,116969
117619,116908
117734,116943
117708,116948
117695,116968
117662,116898
117592,116872
117611,116905
117591,116884
117584,116845
117493,116843
117371,116746
117345,116698
117231,116694
117094,116606
116939,116525
116795,116437
116758,116452
116779,116412
116721,116438
116636,116356
116626,116374
116682,116396
116770,116431
116777,116473
116786,116439
116775,116442
116837,116491
116934,116533
116923,116557
116958,116508
116927,116520
116978,116552
117083,116569
117032,116600
117067,116582
117013,116571
117092,116564
117168,116650
117126,116627
117106,116602
117102,116586
117120,116618
117209,116649
117153,116657
117141,116604
117115,116589
117163,116651
117179,116647
117184,116632
117174,116652
117149,116614
117212,116651
117230,116641
117257,116681
117189,116621
117174,116634
117260,116670
117281,116694
117257,116654
117238,116673
117184,116619
117274,116682
117287,116672
117249,116666
117234,116652
117201,116606
117228,116669
117227,116668
117258,116630
117241,116666
117194,116604
117235,116621
117232,116664
117268,116618
117214,116642
117166,116594
117244,116627
117278,116655
117253,116659
117220,116606
117201,116595
117256,116657
117291,116653
117227,116642
117233,116602
117206,116626
117264,116653
117287,116638
117298,116645
117230,116625
117232,116591
117266,116667
117285,116636
117273,116658
117232,116597
117194,116587
117264,116659
117279,116655
117291,116617
117233,116598
117223,116610
117278,116651
117295,116646
117306,116620
117260,116611
117266,116603
117310,116670
117320,116653
117340,116648
117269,116631
117292,116636
117339,116671
117356,116701
117377,116656
117316,116626
117329,116658
117361,116699
117398,116685
117375,116725
117358,116658
117363,116700
117402,116679
117449,116733
117398,116652
117369,116676
117380,116658
117373,116678
117458,116708
117382,116678
117368,116691
117365,116637
117399,116685
117458,116715
117402,116721
117394,116672
117387,116686
117455,116720
117438,116705
117453,116725
117369,116656
117413,116730
117460,116726
117474,116697
117502,116727
117413,116689
117425,116678
117516,116748
117509,116724
117458,116716
117445,116682
117438,116722
117513,116715
117526,116731
117505,116728
117426,116673
117471,116721
117482,116705
117533,116743
117466,116726
117404,116662
117436,116696
117511,116703
117519,116694
117453,116685
117397,116646
117429,116693
117469,116716
117466,116675
117431,116701
117434,116633
117417,116652
117500,116695
117473,116685
117487,116672
117388,116672
117380,116630
117477,116697
117476,116689
117432,116685
117385,116632
117428,116649
117455,116702
117489,116679
117465,116691
117449,116644
117427,116694
117486,116679
117508,116714
117463,116684
117414,116660
117458,116652
117496,116701
117453,116678
117467,116672
117428,116652
117402,116628
117500,116673
117472,116686
117442,116632
117410,116630
117384,116636
117484,116666
117437,116618
117424,116666
117378,116583
117429,116652
117445,116638
117416,116623
117389,116600
117335,116575
117310,116570
117379,116604
117318,116590
117218,116530
117185,116493
117146,116500
117154,116456
117080,116447
116972,116396
116868,116345
116913,116360
116894,116334
116873,116350
116826,116319
116796,116289
116875,116345
116905,116387
116915,116353
116959,116411
116894,116355
116974,116400
116997,116430
117021,116410
116990,116431
116945,116368
117028,116405
117069,116410
117061,116446
117010,116420
117017,116393
117080,116429
117091,116453
117087,116475
117095,116416
117046,116391
117061,116454
117153,116462
117158,116487
117143,116443
117110,116427
117140,116477
117171,116503
117179,116463
117184,116493
117120,116457
117215,116496
117251,116539
117248,116536
117263,116532
117193,116495
117285,116508
117267,116548
117293,116573
117262,116526
117240,116518
117283,116545
117347,116594
117305,116577
117320,116529
117276,116528
117276,116566
117371,116568
117347,116538
117306,116578
117228,116493
117332,116553
117295,116565
117306,116546
117278,116552
117192,116494
117250,116546
117290,116524
117323,116532
117259,116514
117225,116465
117251,116507
117291,116509
117298,116490
117233,116496
117206,116486
117256,116505
117310,116526
117324,116501
117239,116499
117250,116452
117276,116519
117327,116500
117304,116532
117306,116495
117237,116517
117265,116495
117350,116520
117313,116542
117261,116514
117255,116459
117312,116540
117342,116497
117327,116551
117321,116483
117265,116493
117300,116552
117339,116502
117344,116511
117296,116484
117285,116501
117295,116530
117350,116537
117324,116495
117322,116521
117264,116457
117335,116528
117369,116549
117334,116522
117369,116511
117278,116499
117368,116540
117385,116566
117372,116542
117366,116537
117306,116498
117390,116557
117430,116563
117403,116559
117371,116527
117359,116513
117396,116561
117428,116565
117384,116537
117377,116534
117359,116494
117413,116548
117447,116553
117390,116553
117394,116503
117364,116532
117414,116528
117439,116576
117448,116552
117386,116532
117352,116501
117430,116546
117420,116550
117439,116533
117418,116529
117362,116519
117450,116552
117481,116536
117407,116533
117401,116532
117369,116524
117451,116531
117455,116554
117436,116521
117427,116496
117385,116511
117431,116531
117452,116549
117444,116554
117422,116530
117395,116506
117427,116525
117489,116552
117422,116570
117403,116503
117371,116524
117450,116560
117452,116541
117427,116516
117380,116504
117401,116511
117452,116518
117465,116576
117414,116493
117411,116519
117387,116512
117479,116538
117477,116554
117487,116535
117422,116515
117431,116507
117466,116566
117480,116558
117487,116558
117411,116489
117414,116506
117494,116557
117496,116577
117462,116548
117490,116553
117451,116532
117505,116530
117552,116569
117489,116571
117440,116529
117447,116504
117506,116541
117504,116549
117430,116507
117407,116509
117388,116478
117403,116494
117396,116498
117328,116424
117211,116408
117208,116368
117207,116372
117154,116339
117083,116310
116943,116220
116895,116216
116879,116223
116860,116194
116763,116192
116743,116135
116717,116134
116783,116171
116836,116183
116831,116233
116837,116173
116822,116212
116946,116257
116956,116269
116943,116252
116946,116244
116929,116281
117033,116309
117039,116311
117050,116302
117031,116272
117031,116301
117115,116354
117124,116337
117158,116363
117090,116307
117121,116352
117151,116360
117196,116352
117156,116376
117148,116336
117146,116392
117204,116371
117219,116409
117197,116402
117199,116357
117204,116399
117242,116385
117312,116420
117253,116385
117218,116378
117203,116398
117305,116459
117286,116421
117327,116450
117251,116369
117274,116432
117323,116475
117327,116454
117350,116472
117282,116402
117320,116436
117389,116506
117354,116461
117351,116423
117339,116444
117333,116490
117402,116496
117385,116487
117370,116445
117350,116434
117325,116466
117405,116475
117363,116450
117377,116477
117274,116451
117316,116407
117368,116496
117358,116434
117329,116466
117273,116417
117341,116448
117360,116455
117373,116443
117313,116440
117299,116401
117312,116422
117331,116442
117350,116459
117391,116448
117309,116416
117358,116441
117395,116486
117379,116427
117367,116481
117275,116417
117382,116431
117421,116507
117393,116451
117394,116448
117332,116440
117351,116435
117426,116483
117417,116498
117383,116447
117333,116418
117418,116470
117447,116481
117435,116477
117383,116480
117362,116431
117378,116432
117467,116473
117452,116494
117424,116439
117371,116393
117423,116471
117457,116458
117479,116473
117428,116464
117420,116416
117387,116458
117503,116502
117464,116447
117456,116482
117374,116419
117470,116463
117495,116493
117451,116469
117467,116432
117395,116423
117453,116452
117493,116514
117496,116490
117401,116475
117392,116416
117472,116450
117451,116498
117465,116433
117441,116470
117381,116410
117427,116442
117482,116497
117442,116440
117459,116450
117386,116387
117403,116465
117488,116450
117474,116464
117415,116425
117388,116384
117432,116421
117464,116471
117453,116427
117425,116460
117372,116372
117439,116447
117470,116470
117431,116434
117456,116447
117388,116396
117439,116453
117478,116448
117520,116449
117449,116457
117405,116405
117488,116460
117495,116439
117500,116454
117471,116465
117414,116414
117459,116434
117515,116499
117472,116441
117470,116452
117409,116413
117512,116425
117490,116449
117492,116432
117455,116446
117384,116400
117478,116453
117486,116466
117475,116443
117496,116434
117468,116419
117515,116480
117586,116487
117535,116474
117522,116493
117491,116448
117594,116510
117604,116516
117574,116497
117541,116503
117540,116429
117586,116522
117594,116503
117596,116528
117574,116484
117528,116485
117534,116470
117585,116488
117533,116495
117514,116404
117469,116438
117475,116437
117497,116433
117450,116404
117339,116342
117309,116320
117298,116314
117262,116286
117122,116257
117026,116197
116897,116136
116912,116126
116884,116136
116808,116088
116782,116073
116724,116081
116776,116055
116842,116148
116822,116124
116802,116119
116787,116091
116905,116164
116925,116147
116945,116164
116917,116170
116947,116159
117038,116232
117089,116239
117059,116197
117039,116216
117065,116201
117114,116297
117170,116274
117157,116278
117158,116236
117099,116256
117237,116272
117254,116315
117208,116310
117199,116294
117170,116283
117247,116292
117256,116327
117273,116334
117251,116294
117239,116312
117281,116331
117338,116370
117285,116336
117242,116331
117268,116308
117339,116380
117349,116341
117348,116371
117274,116280
117287,116330
117345,116387
117357,116358
117363,116334
117325,116344
117297,116319
117378,116384
117370,116374
117403,116376
117341,116379
117356,116342
117390,116398
117433,116400
117426,116399
117361,116357
117402,116350
117444,116392
117478,116424
117444,116403
117441,116393
117415,116389
117488,116440
117476,116418
117460,116413
117463,116403
117423,116412
117501,116387
117501,116446
117448,116408
117459,116430
117414,116393
117472,116421
117526,116413
117464,116417
117462,116368
117446,116392
117524,116419
117496,116398
117494,116418
117428,116343
117445,116416
117514,116411
117511,116420
117471,116404
117457,116380
117421,116402
117461,116426
117446,116375
117485,116426
117412,116358
117417,116329
117502,116410
117452,116379
117447,116362
117369,116285
117411,116354
117432,116350
117468,116371
117465,116351
117367,116317
117412,116342
117478,116372
117469,116406
117428,116346
117399,116353
117424,116359
117486,116401
117495,116373
117500,116391
117441,116369
117453,116353
117530,116413
117528,116395
117481,116402
117453,116373
117503,116384
117525,116424
117551,116416
117524,116417
117468,116369
117503,116400
117557,116437
117546,116407
117539,116411
117506,116397
117518,116399
117607,116446
117575,116448
117599,116439
117493,116390
117585,116430
117622,116430
117623,116460
117547,116419
117543,116417
117574,116416
117597,116448
117619,116439
117580,116427
117527,116366
117545,116392
117640,116465
117600,116424
117559,116417
117556,116364
117556,116430
117578,116451
117573,116409
117588,116440
117490,116380
117541,116371
117588,116459
117581,116406
117599,116425
117502,116376
117534,116374
117566,116444
117567,116403
117567,116402
117522,116348
117533,116390
117613,116409
117596,116426
117568,116390
117524,116376
117531,116403
117619,116442
117584,116394
117576,116424
117490,116372
117571,116421
117621,116424
117569,116424
117578,116426
117503,116356
117604,116399
117659,116452
117618,116425
117596,116386
117570,116409
117565,116391
117647,116440
117646,116412
117607,116437
117529,116359
117581,116427
117641,116442
117639,116444
117616,116454
117529,116373
117620,116418
117609,116437
117600,116401
117557,116380
117526,116357
117562,116378
117556,116409
117532,116356
117474,116297
117358,116273
117249,116231
117198,116182
116969,116102
116798,115969
116602,115870
116551,115862
116464,115818
116428,115785
116377,115759
116258,115734
116311,115785
116386,115781
116414,115814
116384,115806
116442,115792
116534,115890
116637,115884
116657,115932
116690,115904
116696,115951
116775,116015
116843,115999
116872,116036
116849,115994
116856,116004
116929,116089
116984,116061
116975,116071
116938,116080
116948,116046
117023,116100
116989,116117
117036,116104
116960,116087
116974,116064
117021,116116
117076,116143
117058,116118
117050,116089
116994,116094
117066,116102
117102,116159
117092,116129
117043,116098
117018,116092
117113,116130
117104,116144
117146,116141
117110,116116
117078,116120
117133,116176
117192,116164
117185,116181
117147,116154
117137,116168
117174,116149
117219,116217
117187,116189
117185,116143
117153,116164
117180,116163
117213,116188
117189,116175
117144,116122
117171,116137
117185,116196
117237,116200
117204,116189
117183,116169
117150,116169
117191,116164
117219,116185
117200,116166
117166,116171
117117,116139
117217,116165
117232,116206
117220,116171
117183,116133
117183,116137
117219,116166
117219,116199
117191,116133
117174,116138
117134,116125
117207,116190
117260,116189
117220,116160
117142,116117
117185,116121
117211,116186
117234,116195
117207,116161
117168,116167
117134,116114
117259,116178
117257,116174
117267,116169
117178,116112
117217,116123
117240,116196
117278,116181
117223,116166
117233,116146
117185,116120
117265,116179
117256,116172
117274,116175
117236,116122
117196,116140
117285,116163
117272,116170
117249,116132
117218,116156
117205,116105
117299,116189
117298,116180
117255,116145
117207,116116
117216,116133
117293,116145
117273,116172
117254,116149
117245,116118
117230,116161
117293,116148
117289,116179
117248,116135
117274,116131
117248,116167
117285,116142
117326,116162
117260,116159
117252,116148
117274,116163
117309,116168
117315,116171
117323,116151
117270,116148
117269,116145
117328,116211
117337,116155
117333,116202
117282,116117
117298,116173
117366,116189
117406,116192
117337,116237
117309,116134
117338,116175
117403,116224
117391,116182
117389,116212
117332,116138
117384,116193
117406,116198
117388,116214
117374,116194
117325,116159
117402,116198
117400,116215
117398,116204
117390,116226
117352,116174
117415,116191
117414,116191
117433,116223
117427,116244
117361,116168
117389,116209
117437,116237
117418,116208
117431,116185
117364,116171
117381,116191
117397,116259
117402,116178
117420,116219
117336,116144
117372,116175
117397,116211
117420,116224
117372,116167
117345,116175
117344,116176
117449,116209
117414,116178
117401,116185
117365,116149
117395,116162
117411,116229
117421,116208
117384,116160
117366,116175
117376,116195
117446,116186
117436,116183
117387,116179
117368,116169
117403,116166
117423,116184
117466,116194
117392,116192
117352,116139
117369,116164
117476,116193
117399,116186
117362,116146
117350,116134
117358,116163
117422,116155
117349,116143
117359,116150
117280,116111
117311,116105
117368,116140
117309,116119
117284,116090
117233,116082
117250,116097
117301,116111
117273,116085
117242,116094
117183,116048
117227,116064
117249,116077
117251,116091
117221,116069
117175,116044
117226,116074
117271,116089
117229,116077
117239,116078
117178,116034
117254,116088
117293,116104
117283,116076
117210,116065
117196,116053
117241,116060
117334,116105
117262,116108
117233,116068
117215,116060
117286,116063
117309,116096
117313,116118
117246,116075
117229,116049
117299,116090
117304,116098
117306,116076
117243,116080
117211,116052
117309,116074
117310,116078
117327,116102
117282,116089
117253,116050
117278,116074
117343,116092
117284,116077
117291,116084
117261,116070
117278,116124
117332,116084
117336,116106
117284,116073
117266,116069
117309,116108
117384,116113
117362,116109
117308,116067
117321,116087
117329,116131
117387,116118
117367,116130
117350,116087
117346,116084
117371,116173
117447,116135
117388,116135
117382,116155
117338,116085
117423,116187
117439,116120
117406,116135
117396,116116
117375,116118
117431,116139
117446,116140
117428,116127
117400,116135
117365,116121
117394,116149
117452,116184
117401,116143
117384,116140
117336,116093
117392,116135
117456,116143
117421,116158
117363,116160
117350,116094
117412,116136
117411,116169
117423,116146
117390,116115
117384,116130
117409,116140
117487,116186
117442,116157
117402,116129
117394,116130
117462,116162
117476,116182
117462,116152
117431,116137
117433,116155
117471,116176
117486,116196
117477,116162
117430,116150
117421,116149
117461,116168
117506,116177
117470,116193
117406,116121
117411,116118
117471,116166
117486,116175
117467,116175
117450,116133
117397,116131
117449,116180
117483,116188
117506,116175
117453,116130
117452,116132
117501,116211
117517,116190
117536,116198
117466,116139
117484,116169
117504,116224
117534,116176
117545,116213
117476,116202
117461,116154
117557,116213
117532,116210
117500,116147
117489,116156
117473,116158
117504,116172
117546,116180
117496,116192
117445,116104
117454,116130
117508,116172
117520,116173
117515,116161
117438,116137
117489,116129
117512,116170
117507,116186
117513,116152
117448,116117
117468,116136
117490,116161
117514,116155
117471,116136
117435,116144
117400,116113
117512,116144
117517,116134
117489,116126
117434,116132
117434,116095
117536,116170
117519,116127
117475,116135
117433,116104
117461,116112
117485,116156
117457,116132
117476,116138
117465,116113
117415,116127
117521,116160
117497,116124
117469,116127
117454,116083
117427,116127
117505,116142
117509,116123
117467,116133
117439,116121
117435,116089
117523,116161
117502,116138
117481,116138
117418,116092
117491,116099
117524,116198
117541,116137
117501,116141
117450,116106
117485,116114
117540,116189
117543,116152
117512,116125
117492,116119
117490,116119
117601,116180
117566,116133
117530,116157
117465,116102
117503,116122
117536,116176
117525,116157
117540,116124
117475,116129
117499,116117
117578,116173
117555,116150
117539,116137
117510,116133
117518,116173
117585,116141
117570,116171
117547,116169
117470,116137
117511,116098
117527,116190
117544,116114
117512,116140
117463,116065
117452,116113
117505,116112
117463,116107
117482,116114
117396,116042
117436,116095
117433,116075
117400,116100
117433,116081
117384,116076
117399,116061
117421,116110
117433,116097
117423,116077
117363,116059
117388,116036
117429,116090
117450,116093
117470,116098
117379,116050
117438,116088
117465,116100
117480,116080
117470,116079
117355,116045
117434,116087
117493,116088
117473,116094
117440,116071
117403,116070
117409,116075
117500,116133
117466,116075
117490,116067
117402,116085
117450,116091
117503,116082
117548,116108
117454,116119
117442,116048
117503,116115
117519,116133
117483,116133
117512,116079
117458,116092
117490,116094
117517,116137
117472,116130
117520,116132
117458,116065
117489,116090
117578,116135
117508,116108
117514,116093
117456,116027
117508,116128
117545,116099
117539,116103
117513,116074
117420,116077
117495,116107
117531,116129
117512,116125
117492,116074
117452,116078
117485,116085
117547,116100
117535,116104
117485,116094
117485,116043
117490,116107
117581,116134
117517,116110
117498,116099
117483,116059
117481,116101
117566,116114
117568,116109
117548,116082
117490,116107
117507,116155
117586,116124
117552,116098
117555,116128
117499,116072
117551,116144
117579,116120
117540,116119
117545,116100
117498,116069
117574,116143
117595,116125
117549,116172
117517,116081
117496,116067
117557,116117
117583,116152
117560,116128
117556,116072
117517,116102
117550,116134
117614,116150
117583,116160
117532,116078
117498,116127
117531,116130
117580,116127
117606,116124
117517,116103
117476,116059
117593,116123
117573,116156
117560,116141
117515,116099
117513,116077
117540,116125
117612,116127
117553,116146
117548,116090
117493,116076
117598,116125
117592,116111
117559,116113
117568,116118
117536,116097
117552,116131
117624,116133
117609,116162
117531,116077
117534,116086
117605,116132
117597,116137
117573,116139
117519,116060
117518,116092
117524,116104
117565,116105
117543,116079
117525,116039
117512,116089
117492,116070
117573,116097
117529,116078
117508,116049
117455,116056
117532,116058
117536,116096
117549,116070
117493,116076
117482,116058
117530,116073
117564,116082
117518,116086
117491,116022
117476,116051
117531,116090
117517,116076
117516,116033
117475,116066
117474,116006
117534,116045
117506,116071
117514,116077
117455,116008
117501,116036
117496,116077
117532,116070
117513,116055
117457,116010
117456,116000
117499,116098
117521,116034
117507,116046
117462,116035
117471,116021
117522,116043
117541,116094
117483,116053
117452,116003
117447,116024
117531,116054
117517,116031
117524,116029
117425,116015
117431,116022
117509,116030
117507,116057
117465,116029
117447,116009
117423,115995
117457,116041
117470,116027
117462,116039
117433,115975
117437,116044
117471,116013
117481,116038
117482,116021
117404,115984
117468,115998
117474,116032
117510,116016
117452,115994
117434,115989
117418,115970
117487,115973
117467,116042
117435,115994
117371,115985
117406,115972
117517,116032
117456,116025
117460,115989
117443,115998
117442,115995
117548,116035
117468,116026
117453,115978
117431,115997
117436,115976
117480,116021
117422,115994
117384,115969
117344,115926
117382,115956
117389,115980
117406,115949
117353,115934
117305,115915
117309,115945
117345,115898
117357,115968
117330,115926
117266,115898
117329,115913
117348,115990
117359,115936
117389,115963
117298,115892
117337,115950
117390,115978
117368,115968
117368,115952
117329,115941
117364,115969
117406,116001
117374,115934
117354,115954
117330,115921
117341,115924
117388,115960
117397,115954
117394,116003
117328,115899
117388,115945
117408,115997
117426,115987
117411,115968
117337,115898
117397,115956
117418,116004
117406,115964
117426,115962
117369,115928
117416,115982
117441,116010
117453,115989
117473,116006
117362,115947
117426,115977
117493,115996
117488,116047
117467,116001
117403,115977
117422,115992
117471,116020
117448,115990
117440,116007
117400,115940
117400,115989
117455,116002
117471,115987
117468,115990
117397,115930
117399,115971
117482,116001
117456,115989
117441,115983
117404,115960
117400,115958
117456,115989
117454,115974
117413,115968
117355,115928
117421,115968
117472,115985
117454,115980
117415,115956
117368,115952
117403,115964
117458,115997
117409,115984
117427,115933
117374,115923
117421,115990
117466,115994
117422,115999
117408,115928
117375,115940
117432,115964
117453,116000
117437,115983
117450,115936
117359,115961
117401,115964
117472,115990
117459,115996
117383,115938
117402,115973
117413,115965
117468,116003
117436,115959
117432,115969
117394,115946
117407,115955
117473,116018
117435,115961
117441,115987
117379,115914
117448,116002
117483,116010
117426,115959
117428,115906
117371,115923
117442,115969
117455,115989
117448,115950
117417,115955
117365,115914
117409,115944
117449,115981
117418,115957
117440,115922
117355,115887
117425,115938
117464,115980
117431,115955
117406,115962
117389,115918
117413,115962
117460,115972
117470,115950
117398,115921
117376,115917
117425,115938
117464,115964
117430,115955
117416,115946
117381,115919
117418,115953
117448,115967
117426,115935
117416,115926
117385,115927
117430,115951
117471,115981
117470,115959
117410,115935
117367,115923
117451,115957
117471,115971
117456,115941
117414,115935
117420,115925
117437,115934
117475,115932
117424,115930
117419,115914
117388,115884
117435,115948
117477,115970
117417,115928
117399,115912
117349,115888
117428,115911
117416,115956
117441,115930
117417,115905
117366,115893
117444,115933
117461,115913
117426,115929
117408,115911
117394,115878
117436,115928
117459,115947
117437,115939
117411,115914
117407,115905
117433,115945
117477,115963
117456,115930
117405,115888
117378,115887
117477,115946
117476,115940
117434,115898
117415,115896
117386,115865
117418,115924
117479,115933
117439,115921
117386,115854
117384,115876
117445,115932
117441,115891
117481,115914
117363,115872
117359,115900
117453,115910
117449,115898
117450,115897
117371,115908
117414,115888
117452,115910
117463,115911
117387,115900
117401,115912
117399,115877
117426,115921
117435,115900
117440,115897
117381,115874
117352,115864
117467,115918
117449,115923
117422,115895
117379,115918
117419,115883
117465,115905
117447,115915
117495,115912
117384,115912
117380,115914
117473,115939
117444,115916
117409,115874
117333,115888
117321,115880
117376,115859
117373,115849
117321,115822
117196,115772
117155,115763
117116,115748
117087,115697
116955,115686
116828,115545
116754,115540
116775,115602
116709,115533
116666,115501
116631,115497
116653,115516
116744,115566
116718,115584
116733,115536
116739,115555
116770,115577
116814,115625
116863,115625
116835,115604
116835,115570
116867,115608
116901,115649
116893,115637
116910,115623
116868,115603
116903,115649
116981,115663
116939,115658
116931,115641
116923,115635
116937,115656
116981,115669
116991,115682
116974,115659
116909,115622
116976,115667
117012,115687
117004,115685
116993,115693
116969,115668
117021,115673
117036,115687
117055,115703
117034,115702
117014,115671
117009,115690
117083,115721
117058,115706
117079,115719
117006,115673
117082,115708
117145,115756
117079,115719
117070,115726
117048,115700
117069,115707
117103,115746
117112,115762
117108,115738
117027,115684
117087,115713
117120,115738
117113,115750
117117,115724
117067,115715
117086,115747
117124,115734
117140,115748
117095,115719
117050,115708
117096,115727
117124,115757
117095,115737
117127,115729
117047,115684
117090,115721
117142,115765
117118,115750
117108,115741
117045,115707
117117,115725
117147,115751
117123,115752
117092,115737
117043,115701
117116,115735
117155,115761
117151,115777
117150,115736
117072,115704
117120,115738
117144,115756
117148,115731
117129,115700
117083,115711
117131,115736
117159,115765
117154,115741
117128,115736
117087,115710
117145,115726
117148,115753
117168,115715
117103,115735
117091,115704
117130,115735
117145,115753
117183,115738
117119,115715
117113,115700
117165,115738
117240,115772
117167,115759
117176,115740
117093,115710
117178,115766
117231,115784
117185,115768
117158,115738
117144,115714
117208,115746
117215,115775
117207,115738
117140,115731
117136,115698
117189,115758
117234,115783
117214,115743
117188,115752
117145,115693
117234,115778
117239,115799
117249,115787
117250,115786
117180,115716
117298,115812
117297,115815
117285,115809
117250,115784
117269,115798
117276,115811
117332,115825
117312,115802
117267,115798
117249,115782
117301,115821
117329,115821
117377,115830
117279,115850
117289,115792
117347,115837
117346,115865
117321,115827
117335,115806
117276,115782
117342,115859
117354,115891
117339,115816
117373,115840
117293,115803
117375,115855
117411,115892
117350,115825
117370,115823
117300,115811
117361,115854
117355,115865
117364,115826
117294,115773
117275,115807
117338,115822
117317,115840
117305,115808
117262,115764
117221,115787
117263,115779
117304,115816
117299,115782
117250,115790
117223,115757
117236,115787
117284,115818
117255,115744
117287,115756
117234,115737
117289,115794
117318,115787
117268,115779
117259,115716
117213,115766
117285,115796
117315,115806
117282,115773
117257,115775
117250,115736
117268,115782
117318,115795
117329,115804
117272,115753
117251,115747
117349,115804
117351,115798
117351,115830
117274,115780
117284,115784
117359,115806
117347,115803
117353,115811
117260,115788
117242,115785
117274,115779
117273,115775
117247,115738
117148,115701
117122,115716
117184,115708
117116,115684
117066,115642
117040,115643
116988,115597
117008,115606
117007,115617
116933,115612
116909,115566
116828,115530
116905,115613
116929,115570
116890,115564
116815,115555
116840,115559
116887,115589
116908,115590
116890,115556
116893,115553
116873,115537
116928,115616
116935,115577
116972,115615
116916,115570
116924,115565
117004,115621
117004,115643
116984,115632
116971,115573
116946,115600
117046,115654
117062,115647
117034,115674
116982,115593
116975,115628
117092,115643
117063,115683
117041,115645
117033,115659
117052,115633
117098,115665
117126,115695
117094,115679
117038,115620
117052,115660
117121,115691
117096,115641
117134,115673
117076,115645
117065,115670
117148,115715
117154,115679
117134,115711
117070,115642
117109,115685
117146,115695
117170,115722
117149,115670
117096,115679
117104,115703
117157,115731
117213,115700
117178,115711
117101,115679
117128,115715
117185,115716
117174,115691
117174,115695
117137,115673
117140,115718
117164,115707
117190,115742
117179,115722
117111,115709
117121,115664
117176,115699
117134,115654
117151,115678
117115,115688
117142,115669
117167,115702
117146,115684
117115,115645
117104,115654
117108,115667
117185,115712
117168,115688
117149,115716
117101,115650
117141,115656
117181,115738
117185,115698
117177,115720
117101,115610
117132,115673
117218,115723
117166,115698
117153,115649
117080,115665
117123,115683
117175,115692
117156,115653
117133,115672
117083,115590
117117,115654
117165,115672
117139,115671
117147,115654
117068,115603
117095,115630
117193,115652
117122,115695
117106,115651
117081,115636
117165,115636
117180,115729
117210,115655
117178,115678
117126,115651
117161,115677
117179,115696
117209,115683
117162,115671
117117,115639
117192,115661
117190,115730
117187,115705
117189,115664
117136,115627
117198,115658
117182,115682
117209,115678
117168,115631
117150,115651
117187,115691
117214,115649
117220,115682
117176,115685
117143,115619
117188,115660
117212,115666
117221,115687
117204,115656
117150,115636
117192,115661
117227,115697
117234,115687
117169,115663
117142,115621
117205,115655
117251,115693
117223,115679
117165,115657
117125,115622
117211,115693
117230,115684
117189,115675
117177,115684
117158,115629
117168,115668
117233,115725
117220,115642
117216,115667
117140,115642
117218,115652
117230,115724
117232,115645
117211,115680
117135,115623
117215,115672
117253,115726
117200,115659
117240,115648
117144,115645
117250,115649
117212,115687
117212,115636
117199,115659
117144,115594
117191,115667
117211,115684
117185,115628
117180,115638
117158,115614
117170,115641
117205,115636
117200,115650
117184,115657
117166,115599
117222,115663
117186,115637
117189,115656
117164,115618
117116,115581
117190,115614
117178,115674
117167,115655
117142,115616
117122,115572
117191,115644
117168,115649
117161,115648
117170,115605
117118,115569
117191,115609
117178,115633
117161,115627
117156,115608
117096,115535
117167,115656
117150,115601
117134,115586
117104,115551
117060,115551
117139,115582
117142,115590
117120,115597
117021,115531
117066,115567
117049,115550
117080,115528
117037,115504
116998,115508
116926,115449
116988,115526
116975,115494
116959,115465
116896,115438
116866,115441
116953,115512
116945,115471
116945,115461
116868,115480
116904,115439
116952,115523
116966,115483
116948,115479
116953,115483
116949,115448
117036,115514
117033,115558
117048,115549
117035,115529
117007,115541
117104,115560
117120,115589
117116,115582
117110,115586
117080,115593
117134,115603
117191,115660
117123,115603
117081,115576
117106,115613
117177,115621
117132,115634
117154,115603
117093,115572
117052,115589
117135,115565
117177,115611
117123,115603
117099,115544
117105,115614
117135,115603
117181,115589
117153,115593
117084,115538
117109,115562
117168,115624
117186,115615
117165,115611
117093,115559
117120,115594
117146,115596
117195,115578
117154,115594
117090,115544
117137,115604
117208,115614
117179,115615
117197,115633
117127,115628
117166,115578
117232,115631
117200,115617
117221,115607
117165,115589
117170,115608
117275,115656
117201,115624
117203,115634
117190,115614
117172,115623
117233,115618
117209,115671
117205,115644
117172,115595
117196,115641
117262,115626
117210,115631
117212,115636
117183,115629
117201,115617
117290,115683
117280,115703
117279,115677
117229,115630
117288,115675
117363,115715
117302,115684
117354,115716
117289,115686
117312,115682
117388,115770
117374,115695
117366,115723
117332,115709
117288,115676
117375,115713
117342,115728
117327,115713
117324,115656
117312,115688
117355,115750
117347,115680
117381,115692
117288,115699
117331,115709
117404,115736
117364,115718
117357,115712
117343,115674
117364,115736
117373,115756
117395,115725
117387,115728
117304,115712
117371,115716
117458,115777
117384,115714
117385,115724
117349,115701
117398,115700
117442,115758
117410,115719
117410,115710
117350,115694
117366,115751
117430,115743
117429,115764
117385,115740
117390,115686
117412,115712
117455,115757
117431,115789
117451,115773
117366,115743
117446,115722
117466,115788
117478,115791
117417,115774
117404,115747
117430,115754
117518,115780
117519,115788
117459,115763
117413,115713
117490,115745
117484,115820
117509,115772
117470,115765
117420,115758
117463,115752
117525,115806
117461,115748
117486,115766
117460,115743
117468,115811
117506,115803
117507,115792
117488,115788
117466,115741
117515,115816
117535,115779
117564,115825
117501,115789
117477,115750
117555,115810
117565,115818
117500,115791
117519,115784
117465,115790
117493,115801
117551,115774
117493,115755
117499,115753
117449,115786
117457,115758
117540,115765
117468,115758
117473,115726
117430,115695
117477,115765
117519,115770
117464,115750
117457,115720
117397,115716
117473,115728
117505,115770
117497,115738
117464,115749
117429,115734
117508,115758
117507,115792
117511,115784
117471,115747
117462,115734
117548,115781
117508,115798
117546,115786
117482,115756
117443,115706
117542,115762
117514,115793
117493,115762
117470,115740
117491,115704
117521,115742
117526,115747
117537,115784
117443,115721
117464,115729
117494,115739
117495,115780
117503,115731
117434,115711
117369,115651
117418,115693
117399,115712
117399,115654
117319,115623
117267,115631
117280,115592
117237,115623
117202,115569
117059,115506
116987,115494
117002,115480
116970,115501
116903,115401
116833,115406
116800,115407
116824,115424
116871,115426
116823,115395
116806,115401
116800,115416
116870,115430
116879,115475
116899,115397
116858,115418
116841,115432
116895,115444
116942,115464
116905,115459
116904,115449
116884,115406
116976,115474
116941,115505
116944,115462
116944,115458
116907,115450
116994,115491
116951,115501
116978,115460
116965,115478
116946,115420
116984,115499
117005,115491
116986,115487
116981,115455
116921,115451
117041,115490
117051,115544
117069,115490
116995,115490
117031,115517
117052,115552
117087,115535
117053,115537
117045,115496
117043,115523
117075,115555
117133,115560
117061,115526
117061,115517
117080,115492
117124,115558
117097,115534
117115,115507
117056,115527
117024,115477
117097,115517
117081,115524
117089,115518
117036,115509
117031,115499
117063,115517
117114,115532
117096,115521
117013,115483
117041,115504
117099,115519
117101,115525
117074,115515
117048,115517
117101,115503
117122,115521
117118,115532
117112,115526
117064,115505
117070,115504
117152,115567
117154,115557
117109,115536
117075,115519
117086,115526
117142,115539
117122,115555
117108,115517
117071,115480
117103,115499
117117,115539
117128,115523
117081,115503
117050,115470
117084,115489
117138,115538
117119,115499
117114,115511
117054,115516
117080,115493
117137,115524
117124,115510
117158,115508
117084,115490
117095,115498
117207,115550
117131,115525
117108,115529
117107,115483
117126,115488
117176,115565
117148,115507
117128,115490
117076,115448
117092,115497
117151,115526
117156,115526
117107,115497
117041,115463
117116,115488
117126,115529
117113,115469
117120,115508
117055,115469
117094,115487
117164,115524
117156,115535
117140,115513
117096,115456
117171,115546
117201,115578
117161,115549
117148,115536
117156,115520
117202,115533
117236,115588
117234,115565
117258,115570
117218,115566
117263,115570
117291,115602
117290,115630
117283,115593
117221,115595
117244,115572
117350,115636
117273,115656
117269,115617
117231,115601
117289,115610
117324,115688
117321,115602
117312,115622
117206,115586
117326,115617
117361,115660
117299,115598
117299,115589
117275,115594
117288,115583
117338,115634
117339,115614
117303,115612
117244,115595
117277,115587
117359,115610
117296,115621
117293,115587
117217,115592
117283,115569
117350,115640
117279,115547
117255,115566
117215,115553
117233,115576
117287,115597
117284,115560
117274,115587
117191,115553
117259,115578
117306,115623
117295,115608
117256,115614
117207,115531
117250,115618
117324,115607
117243,115608
117262,115591
117215,115566
117285,115589
117332,115625
117299,115594
117298,115595
117236,115590
117297,115630
117337,115592
117309,115632
117286,115598
117212,115552
117296,115623
117301,115598
117319,115630
117219,115581
117223,115537
117260,115610
117234,115573
117233,115580
117154,115505
117131,115474
117179,115501
117163,115512
117109,115496
117087,115460
116997,115434
117056,115440
117052,115449
117001,115381
116940,115401
116897,115358
116920,115408
116893,115377
116896,115358
116848,115354
116830,115316
116922,115395
116899,115405
116932,115376
116895,115354
116866,115363
116934,115417
116944,115360
116926,115426
116887,115367
116905,115365
116950,115417
116936,115398
117000,115423
116939,115387
116943,115365
116954,115436
116985,115408
116980,115459
116937,115374
116951,115400
116985,115458
117025,115458
116996,115441
116991,115384
116930,115435
116995,115422
117047,115461
117017,115418
117003,115412
116989,115404
117063,115482
117057,115420
117049,115472
116978,115407
117020,115435
117040,115438
117077,115484
117042,115415
117034,115445
117013,115443
117053,115456
117069,115496
117060,115453
117030,115456
117019,115403
117041,115453
117088,115461
117055,115466
116996,115396
117006,115442
117036,115463
117071,115470
117032,115426
117019,115438
116999,115380
117096,115493
117049,115439
117058,115428
117030,115416
117006,115402
117119,115460
117082,115469
117080,115439
117051,115418
117010,115416
117103,115443
117075,115451
117086,115425
117032,115445
117018,115452
117081,115466
117088,115448
117089,115428
117089,115462
117034,115425
117085,115488
117112,115437
117093,115474
117035,115395
117056,115457
117120,115457
117130,115490
117096,115450
117097,115442
117038,115410
117173,115490
117120,115477
117103,115461
117078,115421
117064,115449
117158,115480
117164,115451
117120,115469
117069,115424
117058,115435
117149,115467
117106,115478
117082,115418
117069,115411
117078,115472
117143,115461
117142,115432
117136,115459
117038,115404
117096,115449
117183,115475
117126,115461
117166,115427
117091,115437
117106,115421
117205,115496
117150,115477
117176,115498
117108,115426
117124,115475
117205,115474
117181,115496
117185,115464
117157,115488
117136,115483
117215,115491
117208,115534
117216,115484
117170,115443
117140,115488
117285,115501
117228,115535
117222,115463
117199,115490
117209,115494
117215,115531
117210,115485
117229,115472
117154,115469
117187,115473
117256,115518
117216,115485
117202,115493
117163,115419
117190,115494
117237,115488
117251,115470
117216,115502
117124,115462
117213,115463
117237,115525
117234,115496
117230,115510
117133,115439
117204,115474
117262,115528
117227,115470
117222,115484
117183,115426
117222,115474
117266,115525
117234,115466
117232,115472
117168,115441
117204,115447
117251,115509
117211,115498
117187,115476
117171,115445
117229,115491
117257,115510
117267,115476
117239,115500
117150,115456
117252,115475
117261,115519
117278,115479
117251,115461
117193,115500
117253,115471
117284,115514
117256,115473
117254,115475
117188,115481
117233,115483
117269,115496
117275,115524
117293,115483
117189,115456
117238,115505
117282,115502
117244,115512
117266,115497
117186,115455
117248,115505
117297,115524
117270,115519
117297,115495
117237,115445
117290,115516
117314,115508
117303,115492
117301,115523
117229,115496
117328,115518
117322,115547
117309,115503
117271,115519
117261,115449
117258,115538
117265,115497
117270,115472
117229,115455
117192,115428
117182,115445
117233,115456
117156,115447
117109,115413
117127,115385
117092,115425
117146,115424
117120,115439
117080,115393
117056,115363
117105,115430
117142,115441
117117,115413
117109,115395
117044,115400
117136,115436
117126,115415
117131,115451
117113,115394
117142,115419
117131,115408
117191,115410
117198,115444
117116,115394
117130,115438
117171,115423
117218,115465
117187,115445
117143,115415
117121,115404
117147,115455
117181,115481
117193,115425
117166,115436
117142,115383
117171,115440
117219,115449
117190,115465
117187,115443
117129,115417
117191,115443
117195,115438
117185,115441
117187,115405
117131,115424
117198,115444
117211,115455
117207,115441
117182,115420
117150,115419
117204,115443
117241,115470
117182,115442
117176,115420
117133,115422
117220,115474
117232,115468
117215,115444
117189,115404
117141,115416
117235,115479
117238,115449
117211,115429
117188,115402
117139,115434
117203,115465
117214,115439
117213,115433
117176,115432
117127,115387
117202,115446
117215,115443
117150,115376
117174,115397
117102,115382
117167,115415
117173,115425
117162,115428
117147,115367
117115,115374
117136,115432
117179,115403
117154,115441
117094,115369
117138,115370
117198,115412
117198,115442
117161,115402
117156,115386
117141,115404
117212,115454
117251,115448
117200,115413
117174,115396
117129,115407
117208,115416
117211,115421
117193,115410
117158,115393
117121,115389
117202,115413
117199,115402
117197,115402
117140,115359
117149,115377
117178,115394
117214,115394
117173,115410
117095,115353
117132,115362
117218,115420
117194,115409
117196,115392
117137,115397
117164,115349
117218,115445
117221,115425
117193,115384
117173,115393
117130,115365
117227,115401
117199,115419
117219,115417
117181,115391
117136,115355
117240,115426
117213,115431
117180,115376
117164,115390
117166,115387
117265,115441
117244,115433
117196,115435
117146,115353
117206,115413
117229,115427
117234,115375
117199,115410
117118,115334
117159,115390
117231,115403
117218,115399
117174,115426
117097,115328
117191,115413
117238,115440
117208,115411
117202,115372
117159,115375
117159,115358
117237,115419
117199,115429
117218,115409
117198,115366
117191,115406
117298,115447
117243,115458
117257,115424
117193,115379
117196,115424
117223,115443
117275,115412
117262,115428
117188,115407
117226,115390
117258,115434
117247,115431
117214,115434
117191,115350
117219,115433
117268,115424
117247,115414
117265,115429
117159,115383
117235,115435
117272,115449
117279,115427
117239,115429
117188,115361
117247,115415
117277,115438
117294,115406
117245,115443
117150,115380
117257,115412
117302,115453
117231,115403
117273,115421
117179,115389
117230,115435
117257,115429
117261,115435
117258,115408
117232,115412
117261,115386
117328,115445
117256,115448
117253,115410
117243,115402
117263,115402
117286,115454
117297,115415
117300,115402
117213,115390
117288,115466
117344,115451
117309,115462
117296,115428
117256,115411
117257,115420
117307,115394
117282,115465
117274,115387
117190,115378
117216,115425
117232,115395
117237,115396
117176,115346
117148,115321
117144,115365
117193,115369
117204,115333
117132,115353
117061,115267
117133,115354
117148,115363
117141,115309
117129,115325
117088,115292
117085,115327
117156,115336
117128,115352
117096,115314
117105,115269
117091,115360
117156,115320
117123,115335
117110,115329
117087,115271
117100,115311
117205,115333
117135,115361
117120,115309
117123,115285
117141,115339
117173,115347
117196,115334
117121,115356
117090,115281
117185,115369
117158,115344
117187,115353
