
0
0
0
0
0
0
0
0
0
0
0
0
0
0
0
0
0
0
0
0
0
0
0
0
0
0
0
0
0
0
0
0
0
0
0
0
0
0
0
0
0
0
0
0
0
0
0
0
0
0
0
0
0
0
0
0
0
0
0
0
0
0
0
0
0
0
0
0
0
0
0
0
0
0
0
0
0
0
0
0
0
0
0
0
0
0
0
0
0
0
0
0
0
0
0
0
0
0
0
0
0
0
0
0
0
0
0
0
0
0
0
0
0
0
0
0
0
0
0
0
0
0
0
0
0
0
0
0
0
0
0
0
0
0
0
0
0
0
0
0
0
0
0
0
0
0
0
0
0
0
0
0
0
0
0
0
0
0
0
0
0
0
0
0
0
0
0
0
0
0
0
0
0
0
0
0
0
0
0
0
0
0
0
0
0
0
0
0
0
0
0
0
0
0
0
0
0
0
0
0
0
0
0
0
0
0
0
0
0
0
0
0
0
0
0
0
0
0
0
0
0
0
0
0
0
0
0
0
0
0
0
0
0
0
0
0
0
0
0
0
0
0
0
0
0
0
0
0
0
0
0
0
0
0
0
0
0
0
0
0
0
0
0
0
0
0
0
0
0
0
0
0
0
0
0
0
0
0
0
0
0
0
0
0
0
0
0
0
0
0
0
0
0
0
0
0
0
0
0
0
0
0
0
0
0
0
0
0
0
0
0
0
0
0
0
0
0
0
0
0
0
0
0
0
0
0
0
0
0
0
0
0
0
0
0
0
0
0
0
0
0
0
0
0
0
0
0
0
0
0
0
0
0
0
0
0
0
0
0
0
0
0
0
0
0
0
0
0
0
0
0
0
0
0
0
0
0
0
0
0
0
0
0
0
0
0
0
0
0
0
0
0
0
0
0
0
0
0
0
0
0
0
0
0
0
0
0
0
0
0
0
0
0
0
0
0
0
0
0
0
0
0
0
0
0
0
0
0
0
0
0
0
0
0
0
0
0
0
0
0
0
0
0
0
0
0
0
0
0
0
0
0
0
0
0
0
0
0
0
0
0
0
0
0
0
0
0
0
0
0
0
0
0
0
0
0
0
0
0
0
0
0
0
0
0
0
0
0
0
0
0
0
0
0
0
0
0
0
0
0
0
0
0
0
0
0
0
0
0
0
0
0
0
0
0
0
0
0
0
0
0
0
0
0
0
0
0
0
0
0
0
0
0
0
0
0
0
0
0
0
0
0
0
0
0
0
0
0
0
0
0
0
0
0
0
0
0
0
0
0
0
0
0
0
0
0
0
0
0
0
0
0
0
0
0
0
0
0
0
0
0
0
0
0
0
0
0
0
0
0
0
0
0
0
0
0
0
0
0
0
0
0
0
0
0
0
0
0
0
0
0
0
0
0
0
0
0
0
0
0
0
0
0
0
0
0
0
0
0
0
0
0
0
0
0
0
0
0
0
0
0
0
0
0
0
0
0
0
0
0
0
0
0
0
0
0
0
0
0
0
0
0
0
0
0
0
0
0
0
0
0
0
0
0
0
0
0
0
0
0
0
0
0
0
0
0
0
0
0
0
0
0
0
0
0
0
0
0
0
0
0
0
0
0
0
0
0
0
0
0
0
0
0
0
0
0
0
0
0
0
0
0
0
0
0
0
0
0
0
0
0
0
0
0
0
0
0
0
0
0
0
0
0
0
0
0
0
0
0
0
0
0
0
0
0
0
0
0
0
0
0
0
0
0
0
0
0
0
0
0
0
0
0
0
0
0
0
0
0
0
0
0
0
0
0
0
0
0
0
0
0
0
0
0
0
0
0
0
0
0
0
0
0
0
0
0
0
0
0
0
0
0
0
0
0
0
0
0
0
0
0
0
0
0
0
0
0
0
0
0
0
0
0
0
0
0
0
0
0
0
0
0
0
0
0
0
0
0
0
0
0
0
0
0
0
0
0
0
0
0
0
0
0
0
0
0
0
0
0
0
0
0
0
0
0
0
0
0
0
0
0
0
0
0
0
0
0
0
0
0
0
0
0
0
0
0
0
0
0
0
0
0
0
0
0
0
0
0
0
0
0
0
0
0
0
0
0
0
0
0
0
0
0
0
0
0
0
0
0
0
0
0
0
0
0
0
0
0
0
0
0
0
0
0
0
0
0
0
0
0
0
0
0
0
0
0
0
0
0
0
0
0
0
0
0
0
0
0
0
0
0
0
0
0
0
0
0
0
0
0
0
0
0
0
0
0
0
0
0
0
0
0
0
0
0
0
0
0
0
0
0
0
0
0
0
0
0
0
0
0
0
0
0
0
0
0
0
0
0
0
0
0
0
0
0
0
0
0
0
0
0
0
0
0
0
0
0
0
0
0
0
0
0
0
0
0
0
0
0
0
0
0
0
0
0
0
0
0
0
0
0
0
0
0
0
0
0
0
0
0
0
0
0
0
0
0
0
0
0
0
0
0
0
0
0
0
0
0
0
0
0
0
0
0
0
0
0
0
0
0
0
0
0
0
0
0
0
0
0
0
0
0
0
0
0
0
0
0
0
0
0
0
0
0
0
0
0
0
0
0
0
0
0
0
0
0
0
0
0
0
0
0
0
0
0
0
0
0
0
0
0
0
0
0
0
0
0
0
0
0
0
0
0
0
0
0
0
0
0
0
0
0
0
0
0
0
0
0
0
0
0
0
0
0
0
0
0
0
0
0
0
0
0
0
0
0
0
0
0
0
0
0
0
0
0
0
0
0
0
0
0
0
0
0
0
0
0
0
0
0
0
0
0
0
0
0
0
0
0
0
0
0
0
0
0
0
0
0
0
0
0
0
0
0
0
0
0
0
0
0
0
0
0
0
0
0
0
0
0
0
0
0
0
0
0
0
0
0
0
0
0
0
0
0
0
0
0
0
0
0
0
0
0
0
0
0
0
0
0
0
0
0
0
0
0
0
0
0
0
0
0
0
0
0
0
0
0
0
0
0
0
0
0
0
0
0
0
0
0
0
0
0
0
0
0
0
0
0
0
0
0
0
0
0
0
0
0
0
0
0
0
0
0
0
0
0
0
0
0
0
0
0
0
0
0
0
0
0
0
0
0
0
0
0
0
0
0
0
0
0
0
0
0
0
0
0
0
0
0
0
0
0
0
0
0
0
0
0
0
0
0
0
0
0
0
0
0
0
0
0
0
0
0
0
0
0
0
0
0
0
0
0
0
0
0
0
0
0
0
0
0
0
0
0
0
0
0
0
0
0
0
0
0
0
0
0
0
0
0
0
0
0
0
0
0
0
0
0
0
0
0
0
0
0
0
0
0
0
0
0
0
0
0
0
0
0
0
0
0
0
0
0
0
0
0
0
0
0
0
0
0
0
0
0
0
0
0
0
0
0
0
0
0
0
0
0
0
0
0
0
0
0
0
0
0
0
0
0
0
0
0
0
0
0
0
0
0
0
0
0
0
0
0
0
0
0
0
0
0
0
0
0
0
0
0
0
0
0
0
0
0
0
0
0
0
0
0
0
0
0
0
0
0
0
0
0
0
0
0
0
0
0
0
0
0
0
0
0
0
0
0
0
0
0
0
0
0
0
0
0
0
0
0
0
0
0
0
0
0
0
0
0
0
0
0
0
0
0
0
0
0
0
0
0
0
0
0
0
0
0
0
0
0
0
0
0
0
0
0
0
0
0
0
0
0
0
0
0
0
0
0
0
0
0
0
0
0
0
0
0
0
0
0
0
0
0
0
0
0
0
0
0
0
0
0
0
0
0
0
0
0
0
0
0
0
0
0
0
0
0
0
0
0
0
0
0
0
0
0
0
0
0
0
0
0
0
0
0
0
0
0
0
0
0
0
0
0
0
0
0
0
0
0
0
0
0
0
0
0
0
0
0
0
0
0
0
0
0
0
0
0
0
0
0
0
0
0
0
0
0
0
0
0
0
0
0
0
0
0
0
0
0
0
0
0
0
0
0
0
0
0
0
0
0
0
0
0
0
0
0
0
0
0
0
0
0
0
0
0
0
0
0
0
0
0
0
0
0
0
0
0
0
0
0
0
0
0
0
0
0
0
0
0
0
0
0
0
0
0
0
0
0
0
0
0
0
0
0
0
0
0
0
0
0
0
0
0
0
0
0
0
0
0
0
0
0
0
0
0
0
0
0
0
0
0
0
0
0
0
0
0
0
0
0
0
0
0
0
0
0
0
0
0
0
0
0
0
0
0
0
0
0
0
0
0
0
0
0
0
0
0
0
0
0
0
0
0
0
0
0
0
0
0
0
0
0
0
0
0
0
0
0
0
0
0
0
0
0
0
0
0
0
0
0
0
0
0
0
0
0
0
0
0
0
0
0
0
0
0
0
0
0
0
0
0
0
0
0
0
0
0
0
0
0
0
0
0
0
0
0
0
0
0
0
0
0
0
0
0
0
0
0
0
0
0
0
0
0
0
0
0
0
0
0
0
0
0
0
0
0
0
0
0
0
0
0
0
0
0
0
0
0
0
0
0
0
0
0
0
0
0
0
0
0
0
0
0
0
0
0
0
0
0
0
0
0
0
0
0
0
0
0
0
0
0
0
0
0
0
0
0
0
0
0
0
0
0
0
0
0
0
0
0
0
0
0
0
0
0
0
0
0
0
0
0
0
0
0
0
0
0
0
0
0
0
0
0
0
0
0
0
0
0
0
0
0
0
0
0
0
0
0
0
0
0
0
0
0
0
0
0
0
0
0
0
0
0
0
0
0
0
0
0
0
0
0
0
0
0
0
0
0
0
0
0
0
0
0
0
0
0
0
0
0
0
0
0
0
0
0
0
0
0
0
0
0
0
0
0
0
0
0
0
0
0
0
0
0
0
0
0
0
0
0
0
0
0
0
0
0
0
0
0
0
0
0
0
0
0
0
0
0
0
0
0
0
0
0
0
0
0
0
0
0
0
0
0
0
0
0
0
0
0
0
0
0
0
-1
0
-1
0
-1
0
-1
0
-1
1
-14
-23
-21
-26
-28
-32
-37
-40
-47
-52
-55
-61
-66
-74
-79
-84
-91
-97
-102
-108
-115
-121
-126
-132
-139
-144
-148
-155
-161
-167
-173
-178
-185
-192
-195
-202
-206
-213
-219
-226
-230
-235
-241
-248
-254
-260
-264
-268
-276
-280
-286
-292
-298
-304
-309
-315
-319
-325
-332
-335
-342
-347
-352
-358
-363
-368
-374
-379
-384
-388
-395
-400
-405
-411
-415
-421
-427
-432
-437
-442
-448
-451
-458
-462
-469
-474
-478
-483
-488
-494
-498
-503
-507
-512
-516
-522
-527
-534
-538
-541
-547
-552
-557
-561
-566
-570
-575
-581
-585
-590
-595
-598
-604
-608
-613
-618
-622
-627
-630
-638
-640
-645
-649
-653
-659
-663
-669
-673
-678
-682
-686
-691
-695
-699
-703
-708
-713
-716
-721
-727
-731
-734
-740
-744
-746
-749
-756
-761
-764
-767
-771
-776
-781
-785
-788
-794
-796
-800
-803
-810
-812
-818
-822
-827
-830
-834
-839
-841
-846
-851
-854
-859
-861
-864
-870
-875
-877
-880
-887
-891
-893
-897
-901
-905
-908
-913
-917
-918
-923
-929
-932
-935
-938
-943
-946
-949
-953
-955
-961
-964
-968
-972
-973
-979
-982
-985
-989
-992
-998
-998
-1004
-1006
-1010
-1013
-1016
-1020
-1024
-1028
-1031
-1036
-1038
-1043
-1046
-1048
-1051
-1055
-1059
-1062
-1065
-1069
-1072
-1075
-1080
-1082
-1085
-1087
-1091
-1096
-1098
-1100
-1104
-1108
-1112
-1113
-1117
-1122
-1124
-1128
-1129
-1131
-1135
-1139
-1141
-1145
-1149
-1151
-1154
-1156
-1159
-1162
-1166
-1169
-1172
-1175
-1179
-1182
-1183
-1186
-1189
-1192
-1194
-1197
-1202
-1205
-1207
-1210
-1212
-1214
-1219
-1219
-1224
-1226
-1228
-1231
-1235
-1238
-1241
-1243
-1245
-1247
-1252
-1255
-1256
-1260
-1262
-1265
-1267
-1269
-1273
-1275
-1278
-1281
-1284
-1286
-1289
-1290
-1292
-1296
-1298
-1301
-1304
-1306
-1308
-1311
-1314
-1315
-1319
-1322
-1323
-1327
-1329
-1331
-1333
-1336
-1339
-1341
-1343
-1346
-1347
-1349
-1352
-1355
-1359
-1359
-1362
-1364
-1366
-1368
-1371
-1373
-1376
-1376
-1380
-1383
-1385
-1386
-1389
-1392
-1393
-1397
-1397
-1400
-1403
-1404
-1407
-1410
-1412
-1413
-1413
-1418
-1420
-1422
-1424
-1428
-1428
-1431
-1434
-1434
-1437
-1440
-1441
-1442
-1445
-1448
-1448
-1453
-1455
-1455
-1458
-1459
-1462
-1464
-1466
-1468
-1468
-1474
-1473
-1474
-1477
-1479
-1481
-1483
-1487
-1487
-1490
-1490
-1492
-1495
-1497
-1498
-1500
-1504
-1505
-1505
-1507
-1511
-1513
-1512
-1517
-1517
-1519
-1521
-1521
-1523
-1524
-1527
-1529
-1531
-1532
-1534
-1537
-1539
-1539
-1541
-1544
-1546
-1545
-1549
-1549
-1552
-1552
-1556
-1557
-1558
-1560
-1561
-1563
-1564
-1567
-1569
-1569
-1571
-1572
-1576
-1576
-1577
-1579
-1581
-1582
-1584
-1585
-1587
-1588
-1590
-1592
-1593
-1593
-1595
-1596
-1599
-1601
-1600
-1600
-1604
-1604
-1608
-1608
-1610
-1611
-1612
-1615
-1615
-1617
-1618
-1619
-1620
-1621
-1624
-1623
-1625
-1628
-1630
-1631
-1631
-1633
-1634
-1634
-1636
-1639
-1640
-1641€
-1642
-1643
-1645
-1645
-1646
-1648
-1648
-1650
-1652
-1653
-1654
-1655
-1656
-1658
-1659
-1660
-1661
-1662
-1661
-1664
-1667
-1668
-1669
-1669
-1671
-1672
-1672
-1673
-1674
-1676
-1678
-1678
-1680
-1681
-1682
-1682
-1684
-1684
-1685
-1687
-1689
-1689
-1689
-1692
-1693
-1692
-1694
-1697
-1697
-1698
-1699
-1700
-1702
-1702
-1703
-1702
-1703
-1706
-1705
-1707
-1706
-1709
-1711
-1710
-1712
-1711
-1713
-1714
-1714
-1715
-1718
-1715
-1718
-1719
-1719
-1721
-1722
-1724
-1723
-1725
-1725
-1727
-1728
-1726
-1727
-1730
-1728
-1731
-1735
-1732
-1735
-1733
-1733
-1736
-1737
-1737
-1736
-1739
-1740
-1740
-1741
-1742
-1744
-1743
-1745
-1746
-1747
-1747
-1750
-1749
-1750
-1752
-1752
-1752
-1753
-1751
-1755
-1754
-1757
-1754
-1755
-1758
-1759
-1759
-1760
-1760
-1763
-1761
-1762
-1762
-1762
-1766
-1764
-1765
-1765
-1767
-1767
-1768
-1770
-1768
-1769
-1769
-1771
-1771
-1771
-1772
-1773
-1773
-1774
-1775
-1775
-1774
-1775
-1777
-1777
-1777
-1778
-1778
-1779
-1778
-1781
-1781
-1780
-1784
-1780
-1782
-1782
-1783
-1784
-1784
-1786
-1786
-1784
-1786
-1785
-1787
-1786
-1788
-1788
-1787
-1789
-1788
-1788
-1790
-1790
-1790
-1792
-1791
-1794
-1793
-1793
-1794€
-1794
-1793
-1795
-1794
-1796
-1796
-1794
-1796
-1795
-1795
-1798
-1796
-1796
-1797
-1797
-1798
-1799
-1801
-1800
-1799
-1800
-1801
-1800
-1801
-1801
-1801
-1803
-1802
-1802
-1804
-1801
-1803
-1804
-1803
-1804
-1805
-1805
-1804
-1805
-1804
-1806
-1806
-1807
-1807
-1808
-1807
-1808
-1807
-1807
-1809
-1807
-1808
-1810
-1808
-1808
-1808
-1809
-1808
-1811
-1809
-1808
-1811
-1809
-1811
-1809
-1810
-1809
-1809
-1811
-1810
-1811
-1812
-1812
-1812
-1811
-1812
-1811
-1811
-1810
-1812
-1810
-1813
-1811
-1813
-1813
-1814
-1812
-1812
-1814
-1813
-1813
-1814
-1815
-1815
-1815
-1813
-1814
-1814
-1816
-1813
-1815
-1813
-1817
-1813
-1813
-1815
-1814
-1815
-1814
-1817
-1813
-1815
-1815
-1814
-1815
-1814
-1816
-1814
-1814
-1815
-1815
-1814
-1815
-1815
-1816
-1814
-1815
-1814
-1815
-1815
-1816
-1813
-1814
-1814
-1814
-1815
-1816
-1814
-1812
-1815
-1814
-1814
-1815
-1814
-1814
-1813
-1814
-1813
-1814
-1813
-1813
-1812
-1812
-1813
-1812
-1813
-1814
-1811
-1812
-1812
-1811
-1812
-1813
-1811
-1812
-1811
-1811
-1811
-1811
-1810
-1814
-1811
-1810
-1810
-1811
-1810
-1810
-1811
-1812
-1812
-1810
-1809
-1810
-1809
-1808
-1810
-1808
-1808
-1809
-1810
-1807
-1808€
-1808
-1806
-1809
-1808
-1806
-1806
-1806
-1805
-1807
-1807
-1804
-1808
-1805
-1806
-1807
-1805
-1805
-1805
-1805
-1805
-1804
-1805
-1803
-1803
-1805
-1804
-1804
-1803
-1804
-1804
-1803
-1802
-1802
-1802
-1802
-1801
-1801
-1800
-1799
-1800
-1800
-1799
-1799
-1800
-1798
-1797
-1798
-1798
-1798
-1796
-1797
-1796
-1796
-1796
-1796
-1794
-1795
-1796
-1795
-1795
-1794
-1793
-1795
-1794
-1794
-1793
-1793
-1793
-1791
-1790
-1790
-1789
-1790
-1789
-1789
-1790
-1789
-1788
-1787
-1787
-1788
-1787
-1787
-1785
-1786
-1785
-1786
-1786
-1785
-1785
-1785
-1784
-1783
-1782
-1784
-1784
-1782
-1781
-1781
-1781
-1781
-1780
-1780
-1780
-1778
-1779
-1778
-1778
-1777
-1777
-1777
-1776
-1775
-1775
-1776
-1776
-1775
-1773
-1773
-1772
-1771
-1771
-1771
-1773
-1769
-1770
-1770
-1769
-1768
-1768
-1769
-1770
-1771
-1768
-1768
-1766
-1767
-1766
-1765
-1767
-1765
-1763
-1765
-1764
-1763
-1764
-1762
-1763
-1762
-1762
-1761
-1761
-1761
-1758
-1759
-1758
-1759
-1757
-1757
-1757
-1756
-1756
-1757
-1756
-1755
-1755
-1753
-1753
-1752
-1754
-1752
-1752
-1751
-1750
-1751
-1749
-1749
-1749
-1748
-1747
-1745
-1746
-1746
-1745
-1745
-1744
-1744
-1744
-1742
-1740
-1743
-1739€
-1740
-1741
-1740
-1740
-1739
-1738
-1739
-1737
-1737
-1736
-1736
-1737
-1735
-1734
-1731
-1733
-1734
-1732
-1732
-1731
-1731
-1730
-1730
-1728
-1728
-1729
-1728
-1728
-1726
-1724
-1723
-1723
-1723
-1723
-1722
-1723
-1720
-1721
-1720
-1719
-1720
-1719
-1717
-1716
-1717
-1716
-1717
-1714
-1715
-1713
-1713
-1712
-1713
-1712
-1711
-1712
-1709
-1708
-1708
-1710
-1710
-1708
-1708
-1705
-1706
-1706
-1704
-1702
-1704
-1702
-1703
-1700
-1700
-1701
-1700
-1700
-1700
-1696
-1699
-1696
-1698
-1695
-1695
-1694
-1695
-1694
-1693
-1691
-1691
-1693
-1690
-1691
-1690
-1688
-1689
-1688
-1687
-1686
-1686
-1685
-1684
-1683
-1683
-1682
-1683
-1680
-1682
-1680
-1679
-1678
-1678
-1677
-1677
-1677
-1675
-1676
-1675
-1671
-1673
-1673
-1673
-1672
-1671
-1669
-1670
-1669
-1668
-1667
-1667
-1665
-1665
-1663
-1662
-1665
-1664
-1663
-1662
-1662
-1661
-1659
-1657
-1660
-1657
-1657
-1657
-1656
-1656
-1655
-1655
-1653
-1654
-1652
-1650
-1652
-1652
-1650
-1648
-1647
-1647
-1647
-1647
-1646
-1645
-1644
-1644
-1642
-1641
-1643
-1640
-1641
-1637
-1637
-1638
-1636
-1637
-1636
-1635
-1633
-1635
-1635
-1633
-1632
-1632
-1630
-1630
-1629
-1630
-1629
-1628
-1625
-1626
-1625€
-1626
-1623
-1622
-1622
-1623
-1622
-1622
-1623
-1620
-1619
-1620
-1617
-1618
-1615
-1615
-1614
-1615
-1613
-1612
-1611
-1611
-1609
-1609
-1610
-1608
-1607
-1609
-1607
-1607
-1606
-1604
-1606
-1602
-1602
-1603
-1601
-1600
-1600
-1601
-1598
-1599
-1599
-1597
-1595
-1595
-1594
-1594
-1591
-1591
-1591
-1589
-1589
-1589
-1587
-1588
-1587
-1586
-1586
-1585
-1584
-1583
-1582
-1581
-1581
-1582
-1581
-1580
-1578
-1577
-1578
-1576
-1575
-1576
-1573
-1574
-1574
-1573
-1571
-1570
-1570
-1569
-1568
-1568
-1568
-1567
-1566
-1565
-1564
-1563
-1562
-1564
-1561
-1560
-1561
-1559
-1558
-1558
-1556
-1557
-1555
-1553
-1553
-1553
-1553
-1552
-1551
-1551
-1549
-1548
-1547
-1547
-1547
-1545
-1545
-1544
-1544
-1542
-1542
-1541
-1540
-1541
-1537
-1538
-1537
-1536
-1536
-1535
-1534
-1533
-1533
-1531
-1531
-1531
-1529
-1528
-1529
-1527
-1525
-1525
-1526
-1523
-1523
-1524
-1523
-1521
-1520
-1520
-1516
-1518
-1518
-1516
-1513
-1514
-1513
-1514
-1511
-1511
-1510
-1512
-1511
-1509
-1508
-1508
-1507
-1505
-1506
-1503
-1502
-1503
-1503
-1502
-1502
-1500
-1500
-1499
-1497
-1497
-1497
-1497
-1495
-1494
-1494
-1493
-1492
-1491
-1490
-1489
-1488
-1490
-1488
-1486
-1486€
-1485
-1484
-1484
-1482
-1482
-1482
-1481
-1480
-1480
-1478
-1478
-1477
-1475
-1476
-1476
-1474
-1475
-1473
-1472
-1472
-1470
-1470
-1470
-1468
-1468
-1466
-1467
-1465
-1464
-1464
-1463
-1463
-1461
-1461
-1459
-1459
-1458
-1456
-1458
-1458
-1454
-1455
-1455
-1454
-1453
-1451
-1451
-1450
-1448
-1450
-1447
-1446
-1446
-1446
-1443
-1445
-1442
-1441
-1440
-1441
-1441
-1440
-1438
-1440
-1438
-1436
-1435
-1435
-1434
-1434
-1433
-1431
-1430
-1429
-1429
-1428
-1427
-1427
-1425
-1425
-1423
-1425
-1421
-1422
-1420
-1421
-1418
-1419
-1418
-1417
-1417
-1416
-1414
-1414
-1413
-1413
-1413
-1412
-1411
-1410
-1408
-1410
-1408
-1407
-1406
-1406
-1405
-1403
-1403
-1402
-1402
-1399
-1400
-1400
-1399
-1397
-1398
-1396
-1395
-1396
-1394
-1394
-1392
-1391
-1391
-1389
-1390
-1388
-1388
-1387
-1387
-1384
-1383
-1383
-1383
-1382
-1380
-1381
-1379
-1379
-1377
-1378
-1374
-1376
-1374
-1372
-1371
-1371
-1371
-1369
-1369
-1369
-1368
-1367
-1365
-1365
-1364
-1362
-1362
-1362
-1361
-1360
-1360
-1359
-1359
-1356
-1357
-1355
-1355
-1356
-1354
-1353
-1352
-1351
-1352
-1350
-1350
-1348
-1348
-1345
-1347
-1345
-1345
-1344
-1343
-1342
-1341
-1340
-1340
-1339
-1339
-1337€
-1336
-1335
-1334
-1335
-1335
-1333
-1332
-1332
-1330
-1331
-1330
-1328
-1326
-1328
-1325
-1325
-1324
-1324
-1323
-1321
-1319
-1320
-1319
-1320
-1317
-1317
-1317
-1313
-1315
-1314
-1314
-1312
-1311
-1311
-1311
-1311
-1307
-1308
-1308
-1306
-1307
-1305
-1303
-1303
-1303
-1303
-1300
-1300
-1300
-1300
-1299
-1299
-1297
-1297
-1296
-1296
-1292
-1293
-1292
-1292
-1291
-1290
-1289
-1289
-1288
-1286
-1289
-1285
-1286
-1285
-1283
-1283
-1283
-1281
-1279
-1282
-1280
-1279
-1277
-1275
-1274
-1274
-1274
-1274
-1272
-1273
-1270
-1270
-1270
-1269
-1267
-1269
-1265
-1265
-1265
-1265
-1262
-1261
-1261
-1262
-1262
-1259
-1257
-1258
-1256
-1256
-1254
-1254
-1255
-1254
-1253
-1251
-1250
-1250
-1251
-1247
-1246
-1247
-1245
-1245
-1245
-1243
-1243
-1243
-1242
-1241
-1240
-1238
-1238
-1237
-1236
-1236
-1235
-1236
-1235
-1233
-1234
-1230
-1231
-1228
-1229
-1230
-1228
-1226
-1226
-1225
-1226
-1225
-1222
-1225
-1222
-1221
-1221
-1220
-1220
-1220
-1216
-1215
-1217
-1216
-1214
-1214
-1214
-1212
-1213
-1210
-1208
-1210
-1207
-1207
-1207
-1204
-1206
-1205
-1204
-1205
-1203
-1201
-1201
-1201
-1200
-1199
-1198
-1198
-1197
-1196
-1195
-1194
-1194
-1192
-1191
-1192€
-1192
-1189
-1191
-1188
-1188
-1187
-1185
-1186
-1186
-1184
-1184
-1182
-1181
-1181
-1181
-1179
-1178
-1177
-1178
-1176
-1176
-1175
-1175
-1175
-1171
-1173
-1172
-1170
-1169
-1169
-1168
-1165
-1168
-1165
-1166
-1166
-1164
-1162
-1163
-1163
-1161
-1160
-1159
-1159
-1157
-1156
-1157
-1155
-1155
-1155
-1154
-1155
-1152
-1152
-1150
-1150
-1148
-1149
-1148
-1148
-1147
-1146
-1145
-1145
-1144
-1142
-1142
-1141
-1140
-1139
-1137
-1137
-1135
-1136
-1135
-1134
-1132
-1134
-1132
-1131
-1131
-1129
-1129
-1128
-1128
-1128
-1127
-1126
-1126
-1124
-1124
-1121
-1123
-1121
-1119
-1120
-1117
-1119
-1118
-1118
-1117
-1116
-1115
-1114
-1112
-1113
-1113
-1112
-1111
-1111
-1109
-1108
-1109
-1108
-1106
-1107
-1103
-1104
-1103
-1102
-1102
-1100
-1100
-1100
-1098
-1100
-1099
-1098
-1097
-1096
-1095
-1093
-1094
-1093
-1093
-1091
-1092
-1090
-1090
-1090
-1088
-1087
-1088
-1085
-1085
-1083
-1083
-1082
-1082
-1079
-1081
-1079
-1078
-1080
-1077
-1078
-1076
-1075
-1076
-1074
-1072
-1072
-1072
-1071
-1070
-1070
-1070
-1069
-1068
-1066
-1066
-1067
-1064
-1063
-1065
-1062
-1063
-1062
-1061
-1061
-1059
-1058
-1058
-1058
-1057
-1056
-1056
-1056
-1053
-1053
-1051
-1052€
-1051
-1051
-1051
-1048
-1049
-1047
-1046
-1046
-1044
-1045
-1043
-1043
-1042
-1041
-1040
-1040
-1041
-1040
-1038
-1038
-1038
-1036
-1035
-1036
-1034
-1034
-1032
-1032
-1032
-1028
-1028
-1029
-1028
-1027
-1026
-1026
-1024
-1023
-1023
-1022
-1022
-1023
-1020
-1020
-1018
-1018
-1018
-1016
-1017
-1016
-1016
-1015
-1014
-1012
-1012
-1012
-1011
-1010
-1011
-1008
-1009
-1007
-1008
-1007
-1007
-1005
-1004
-1003
-1004
-1003
-1002
-1001
-1000
-1001
-1000
-997
-997
-997
-995
-996
-995
-994
-994
-992
-991
-990
-991
-991
-989
-989
-987
-988
-986
-985
-984
-983
-985
-983
-983
-982
-981
-981
-981
-980
-978
-979
-976
-977
-977
-977
-975
-972
-973
-973
-975
-971
-970
-971
-969
-970
-967
-967
-969
-967
-966
-964
-964
-965
-965
-963
-962
-960
-962
-959
-961
-959
-958
-958
-957
-956
-956
-955
-953
-954
-952
-952
-951
-951
-951
-950
-947
-947
-947
-948
-946
-944
-945
-943
-944
-942
-942
-941
-941
-942
-940
-940
-938
-938
-937
-936
-937
-935
-936
-932
-934
-933
-931
-929
-930
-929
-929
-929
-926
-927
-926
-927
-926
-924
-924
-923
-921
-923
-922
-921
-920
-917
-919
-917
-919
-917
-915
-915
-914
-914
-913
-913
-911
-911
-911
-911
-909
-909
-909
-907
-906
-906
-905
-903
-903
-902
-903
-903
-902
-902
-901
-901
-899
-898
-899
-897
-896
-895
-894
-895
-895
-894
-891
-892
-892
-890
-890
-889
-889
-887
-888
-886
-886
-887
-885
-885
-886
-883
-882
-881
-881
-880
-881
-880
-878
-879
-877
-876
-876
-876
-875
-872
-874
-873
-871
-872
-871
-871
-870
-868
-869
-867
-867
-866
-866
-866
-864
-864
-864
-862
-862
-861
-862
-859
-861
-860
-859
-858
-857
-857
-856
-854
-855
-853
-854
-852
-852
-852
-851
-851
-851
-850
-849
-849
-848
-847
-847
-844
-843
-844
-844
-842
-842
-842
-841
-842
-841
-840
-839
-838
-837
-838
-836
-836
-834
-834
-834
-831
-832
-833
-831
-830
-829
-830
-829
-829
-827
-828
-827
-825
-826
-825
-824
-824
-824
-823
-822
-823
-822
-822
-819
-819
-819
-818
-814
-816
-817
-816
-813
-814
-814
-812
-811
-812
-812
-810
-810
-811
-810
-810
-808
-807
-806
-807
-805
-805
-804
-804
-803
-801
-802
-802
-800
-800
-800
-798
-800
-798
-797
-798
-796
-795
-796
-794
-795
-794
-792
-791
-792
-792
-790
-790
-790
-787
-787
-786
-786
-785
-786
-784
-784
-784
-782
-783
-782
-781
-781
-779
-780
-779
-780
-777
-776
-776
-776
-776
-777
-773
-774
-773
-772
-774
-772
-771
-771
-770
-770
-766
-768
-769
-765
-766
-765
-764
-763
-762
-763
-762
-762
-762
-761
-761
-760
-758
-758
-759
-758
-758
-758
-757
-757
-757
-755
-754
-754
-753
-752
-751
-751
-750
-749
-748
-747
-746
-748
-747
-746
-746
-745
-745
-744
-744
-743
-743
-742
-739
-742
-740
-737
-739
-739
-738
-737
-737
-736
-737
-736
-736
-736
-735
-732
-731
-733
-731
-729
-731
-729
-729
-728
-729
-726
-726
-727
-726
-727
-726
-723
-724
-724
-724
-722
-723
-721
-720
-721
-719
-720
-718
-717
-718
-717
-718
-714
-717
-715
-716
-713
-715
-714
-713
-713
-710
-710
-709
-710
-709
-708
-709
-705
-707
-706
-705
-705
-705
-702
-703
-702
-701
-702
-703
-703
-700
-700
-699
-699
-699
-697
-698
-697
-696
-696
-697
-693
-694
-692
-692
-694
-691
-692
-691
-689
-689
-689
-689
-688
-689
-688
-687
-687
-687
-686
-687
-686
-684
-684
-684
-681
-681
-681
-681
-681
-679
-681
-680
-678
-677
-678
-676
-676
-676
-676
-676
-675
-672
-672
-674
-671
-672
-671
-670
-670
-669
-670
-668
-668
-668
-668
-666
-665
-666
-666
-664
-664
-663
-663
-664
-661
-663
-661
-661
-661
-660
-660
-660
-660
-658
-658
-656
-658
-655
-657
-656
-653
-655
-653
-653
-652
-654
-653
-652
-651
-651
-650
-649
-650
-649
-648
-646
-648
-647
-646
-645
-645
-644
-644
-644
-643
-644
-643
-641
-640
-640
-638
-640
-640
-640
-638
-637
-637
-636
-637
-636
-635
-634
-635
-635
-631
-632
-632
-631
-630
-630
-631
-631
-628
-629
-628
-627
-627
-626
-627
-624
-627
-624
-624
-624
-621
-623
-621
-622
-620
-622
-620
-621
-619
-618
-619
-617
-618
-616
-616
-617
-617
-614
-614
-615
-615
-612
-613
-614
-614
-612
-611
-611
-610
-610
-608
-608
-609
-607
-608
-607
-606
-607
-606
-605
-605
-604
-604
-603
-602
-603
-602
-601
-600
-599
-600
-601
-598
-598
-597
-598
-597
-596
-596
-594
-593
-595
-594
-594
-593
-592
-593
-591
-592
-590
-589
-589
-588
-589
-590
-588
-588
-588
-587
-587
-586
-585
-586
-584
-583
-584
-583
-582
-582
-581
-582
-581
-580
-579
-581
-580
-579
-579
-578
-579
-577
-578
-576
-575
-577
-574
-573
-575
-573
-571
-573
-570
-571
-571
-570
-571
-570
-570
-569
-568
-568
-568
-567
-567
-567
-566
-566
-565
-565
-564
-565
-563
-564
-563
-562
-562
-561
-560
-560
-560
-561
-562
-560
-558
-557
-558
-558
-555
-557
-558
-556
-556
-555
-556
-554
-554
-554
-553
-552
-554
-553
-552
-551
-550
-549
-548
-550
-549
-550
-549
-547
-547
-545
-546
-545
-546
-546
-545
-544
-544
-544
-543
-540
-542
-543
-543
-541
-542
-540
-540
-540
-540
-538
-538
-536
-535
-537
-537
-536
-537
-536
-535
-534
-534
-533
-534
-533
-532
-533
-531
-531
-532
-531
-531
-530
-528
-528
-529
-528
-527
-527
-527
-527
-525
-526
-526
-525
-524
-523
-523
-522
-522
-524
-521
-520
-520
-518
-521
-520
-519
-520
-518
-515
-517
-517
-517
-515
-515
-516
-516
-512
-515
-514
-513
-512
-511
-511
-512
-513
-511
-511
-510
-510
-510
-509
-508
-509
-508
-506
-508
-506
-506
-506
-505
-505
-505
-504
-503
-504
-503
-503
-501
-503
-501
-501
-502
-501
-499
-499
-500
-497
-496
-498
-499
-498
-495
-497
-495
-495
-494
-494
-496
-494
-494
-494
-492
-493
-492
-491
-491
-491
-490
-489
-490
-489
-489
-487
-490
-488
-488
-487
-486
-487
-486
-487
-485
-483
-485
-484
-484
-484
-483
-482
-483
-480
-481
-481
-480
-480
-479
-479
-478
-478
-478
-477
-477
-478
-477
-475
-475
-474
-475
-475
-473
-473
-474
-474
-473
-472
-470
-471
-471
-470
-470
-469
-471
-469
-467
-468
-468
-466
-467
-467
-466
-466
-465
-465
-464
-465
-464
-463
-464
-464
-463
-462
-461
-462
-462
-460
-462
-459
-460
-460
-460
-459
-458
-459
-458
-456
-457
-456
-455
-456
-456
-455
-456
-454
-455
-454
-453
-452
-451
-452
-450
-452
-451
-450
-449
-449
-449
-450
-447
-448
-448
-448
-447
-446
-445
-446
-447
-444
-444
-444
-443
-444
-443
-443
-442
-442
-442
-441
-441
-441
-440
-439
-440
-439
-439
-439
-437
-438
-438
-438
-437
-436
-436
-434
-435
-434
-436
-434
-434
-435
-434
-433
-431
-432
-431
-430
-431
-429
-429
-429
-427
-428
-429
-429
-429
-427
-427
-426
-426
-426
-425
-427
-426
-426
-425
-424
-424
-423
-424
-421
-423
-424
-422
-420
-420
-423
-422
-421
-420
-419
-417
-419
-418
-418
-418
-417
-418
-417
-418
-415
-417
-415
-416
-415
-413
-414
-415
-414
-413
-414
-413
-414
-413
-412
-411
-411
-410
-411
-411
-411
-410
-408
-408
-409
-408
-408
-406
-409
-407
-405
-404
-407
-405
-405
-404
-405
-404
-403
-404
-404
-402
-401
-403
-401
-399
-400
-401
-400
-402
-399
-399
-401
-400
-398
-398
-397
-396
-399
-398
-397
-398
-397
-396
-397
-395
-394
-394
-394
-392
-394
-393
-393
-394
-393
-392
-392
-390
-392
-392
-391
-391
-391
-389
-389
-391
-387
-388
-388
-388
-387
-386
-387
-386
-386
-386
-386
-385
-385
-385
-384
-384
-384
-383
-383
-381
-383
-380
-380
-381
-382
-380
-381
-378
-380
-380
-379
-380
-379
-377
-377
-379
-377
-376
-376
-375
-376
-375
-375
-373
-374
-373
-373
-373
-374
-373
-372
-373
-374
-372
-371
-370
-371
-370
-369
-369
-369
-369
-369
-369
-367
-366
-367
-367
-366
-367
-366
-365
-363
-365
-364
-362
-363
-362
-364
-364
-362
-361
-360
-364
-361
-361
-360
-360
-363
-359
-361
-360
-358
-359
-357
-360
-358
-359
-359
-357
-356
-357
-356
-356
-356
-355
-356
-356
-356
-355
-354
-353
-353
-353
-352
-352
-352
-353
-351
-350
-350
-350
-349
-349
-349
-349
-349
-349
-348
-349
-348
-348
-348
-348
-348
-347
-346
-347
-345
-346
-345
-345
-344
-343
-342
-343
-344
-343
-344
-343
-342
-342
-341
-340
-341
-341
-341
-341
-342
-340
-339
-339
-341
-338
-338
-338
-336
-335
-337
-339
-339
-336
-337
-336
-335
-336
-336
-335
-333
-333
-333
-334
-335
-333
-333
-331
-333
-331
-332
-330
-332
-330
-331
-330
-327
-328
-328
-328
-329
-329
-328
-328
-326
-326
-328
-327
-328
-326
-326
-326
-326
-325
-325
-324
-325
-324
-325
-325
-324
-323
-322
-323
-324
-323
-323
-320
-320
-321
-321
-320
-320
-319
-319
-319
-318
-318
-318
-320
-316
-317
-316
-318
-317
-317
-316
-315
-314
-315
-315
-314
-315
-314
-314
-311
-314
-313
-312
-314
-311
-312
-312
-313
-312
-311
-312
-310
-310
-310
-310
-310
-310
-309
-310
-308
-310
-306
-308
-309
-308
-306
-307
-307
-305
-307
-305
-305
-304
-307
-304
-305
-304
-305
-305
-304
-304
-303
-303
-303
-303
-302
-302
-302
-300
-300
-302
-300
-300
-301
-299
-301
-299
-299
-299
-299
-298
-298
-299
-298
-298
-298
-298
-297
-298
-297
-297
-295
-295
-297
-294
-293
-293
-294
-294
-295
-294
-294
-293
-293
-291
-293
-292
-292
-291
-291
-291
-292
-289
-291
-292
-291
-290
-290
-290
-289
-289
-288
-289
-288
-287
-288
-288
-287
-286
-286
-286
-286
-285
-287
-287
-285
-285
-285
-284
-284
-284
-286
-284
-285
-283
-283
-283
-282
-283
-283
-282
-281
-282
-280
-282
-281
-281
-280
-280
-279
-280
-279
-279
-279
-279
-277
-278
-277
-277
-277
-276
-276
-275
-277
-276
-276
-275
-275
-275
-274
-274
-274
-274
-275
-275
-273
-273
-273
-272
-273
-272
-273
-271
-270
-271
-272
-272
-272
-271
-270
-271
-272
-270
-269
-271
-269
-269
-269
-269
-267
-268
-268
-270
-267
-268
-268
-267
-270
-266
-266
-267
-265
-266
-267
-266
-266
-264
-266
-265
-265
-264
-263
-263
-262
-263
-262
-262
-263
-262
-260
-261
-261
-260
-261
-262
-261
-261
-262
-259
-260
-259
-260
-260
-259
-259
-259
-258
-258
-259
-259
-258
-257
-255
-258
-255
-256
-258
-254
-254
-255
-254
-255
-255
-253
-254
-254
-253
-252
-253
-253
-252
-253
-253
-252
-253
-251
-252
-252
-251
-250
-252
-250
-251
-250
-250
-250
-249
-249
-249
-249
-249
-250
-250
-248
-248
-248
-248
-247
-250
-247
-248
-247
-246
-245
-245
-245
-246
-246
-245
-245
-245
-246
-244
-244
-244
-243
-243
-244
-243
-243
-242
-242
-241
-241
-242
-241
-239
-241
-240
-242
-241
-241
-241
-239
-240
-238
-240
-238
-240
-240
-237
-237
-238
-239
-239
-237
-237
-237
-235
-236
-236
-236
-235
-236
-235
-234
-236
-236
-237
-235
-233
-233
-234
-233
-234
-233
-234
-231
-235
-228
-238
-223
-245
-211
-266
-169
-484
-1418
-1291
-1273
-1172
-1105
-996
-895
-770
-645
-512
-378
-238
-96
49
194
337
471
599
721
827
923
1019
1099
1185
1262
1323
1374
1403
1423
1433
1433
1425
1418
1407
1384
1361
1338
1332
1342
1410
1423
1198
941
823
794
781
692
630
661
686
686
680
653
626
636
666
709
747
779
810
832
851
863
861
851
842
829
816
793
755
715
673
623
573
517
467
426
389
350
316
287
261
246
226
203
174
145
115
92
70
48
23
-3
-27
-52
-75
-103
-137
-169
-202
-230
-255
-275
-296
-316
-338
-358
-373
-387
-401
-404
-413
-423
-427
-437
-442
-446
-454
-464
-472
-484
-490
-503
-511
-521
-527
-530
-533
-529
-520
-503
-486
-461
-435
-410
-386
-362
-334
-310
-282
-254
-229
-205
-185
-167
-156
-146
-139
-138
-134
-132
-134
-130
-129
-125
-116
-106
-102
-91
-79
-67
-54
-48
-45
-43
-49
-58
-70
-81
-92
-99
-111
-125
-138
-150
-158
-162
-163
-165
-162
-162
-166
-175
-185
-199
-217
-237
-260
-282
-301
-323
-340
-357
-375
-386
-391
-395
-390
-384
-372
-351
-323
-294
-253
-217
-178
-137
-103
-69
-29
2
28
55
76
96
110
117
126
128
129
128
120
111
102
93
77
66
56
39
24
7
-16
-34
-53
-71
-87
-103
-120
-136
-150
-165
-176
-182
-181
-178
-171
-165
-160
-149
-142
-125
-106
-85
-64
-41
-19
-3
12
18
21
19
16
11
10
13
21
33
45
60
74
89
102
118
131
141
144
141
136
129
118
108
97
84
71
59
47
35
25
15
3
-12
-25
-40
-56
-73
-87
-108
-128
-151
-178
-203
-224
-240
-251
-266
-272
-282
-287
-290
-288
-283
-276
-269
-262
-252
-242
-234
-223
-211
-206
-198
-195
-193
-189
-186
-183
-178
-174
-163
-150
-132
-112
-90
-71
-55
-33
-9
13
36
60
84
110
134
156
179
196
212
225
235
243
244
242
237
234
231
219
213
204
193
191
184
177
172
165
165
162
155
151
139
124
107
86
57
26
-9
-49
-94
-138
-186
-226
-265
-301
-324
-345
-359
-369
-373
-373
-369
-363
-353
-343
-331
-319
-311
-303
-298
-293
-291
-286
-281
-274
-264
-258
-245
-231
-211
-194
-170
-148
-124
-97
-65
-29
8
41
77
103
123
142
153
157
155
143
127
106
75
41
5
-34
-68
-103
-135
-157
-178
-190
-193
-193
-191
-187
-189
-186
-183
-182
-185
-198
-218
-241
-274
-310
-348
-392
-435
-474
-517
-554
-590
-620
-646
-670
-690
-703
-712
-716
-715
-707
-695
-679
-662
-640
-620
-598
-576
-556
-535
-519
-505
-494
-484
-475
-467
-461
-454
-443
-433
-418
-399
-378
-354
-326
-296
-266
-234
-200
-164
-121
-83
-45
-7
27
56
80
99
117
132
140
149
155
159
163
165
166
169
169
167
168
170
175
177
169
166
169
179
190
196
194
187
176
157
136
118
95
75
50
20
-10
-40
-73
-106
-140
-178
-211
-247
-275
-303
-327
-345
-359
-374
-385
-400
-417
-432
-453
-472
-491
-513
-537
-562
-591
-624
-656
-691
-717
-745
-772
-798
-822
-841
-853
-858
-860
-855
-846
-839
-830
-817
-804
-786
-770
-751
-726
-699
-673
-644
-617
-593
-568
-542
-514
-483
-458
-437
-420
-407
-396
-385
-372
-362
-354
-347
-342
-334
-324
-309
-287
-259
-231
-201
-177
-149
-116
-84
-50
-22
-2
16
54
96
130
147
152
164
190
220
247
257
250
238
228
222
214
199
179
157
139
130
119
111
107
111
123
134
140
148
152
165
180
205
236
262
281
307
336
372
411
468
574
691
736
738
743
781
848
877
843
780
721
673
628
581
528
481
436
386
333
279
241
218
206
208
214
220
219
201
183
173
175
196
232
284
339
400
456
516
594
693
812
975
1153
1282
1330
1311
1283
1308
1381
1432
1362
1140
821
452
51
-396
-895
-1423
-1941
-2411
-2814
-3140
-3395
-3581
-3701
-3758
-3757
-3702
-3613
-3482
-3339
-3188
-3020
-2837
-2636
-2420
-2192
-1953
-1703
-1437
-1157
-868
-575
-283
2
273
533
772
987
1183
1352
1494
1620
1721
1801
1865
1906
1928
1940
1927
1906
1874
1831
1789
1737
1679
1615
1541
1460
1375
1287
1200
1110
1022
944
873
809
754
708
673
644
618
591
565
542
523
498
474
438
398
357
312
274
230
187
141
96
50
2
-41
-92
-145
-207
-278
-357
-447
-540
-637
-739
-841
-940
-1038
-1127
-1204
-1268
-1327
-1374
-1405
-1420
-1418
-1400
-1372
-1334
-1287
-1231
-1163
-1092
-1017
-939
-860
-776
-691
-608
-525
-452
-381
-319
-263
-212
-171
-134
-104
-78
-56
-38
-27
-22
-18
-21
-23
-33
-39
-47
-61
-77
-91
-110
-123
-140
-159
-177
-191
-206
-217
-231
-243
-262
-281
-306
-335
-368
-410
-457
-508
-559
-609
-656
-703
-749
-792
-834
-875
-914
-948
-979
-1002
-1022
-1033
-1042
-1046
-1043
-1033
-1015
-992
-965
-928
-889
-851
-809
-769
-729
-689
-652
-615
-583
-553
-523
-488
-456
-422
-390
-363
-336
-309
-287
-266
-247
-230
-213
-200
-190
-179
-171
-165
-159
-154
-144
-135
-130
-121
-109
-96
-83
-69
-50
-32
-8
16
42
73
101
127
156
187
217
244
265
283
301
317
326
335
353
369
384
397
406
406
408
415
423
436
440
441
439
427
425
417
400
376
350
327
307
280
253
224
195
172
147
127
105
86
71
62
54
54
59
60
62
65
67
70
71
72
66
59
55
45
31
13
1
-10
-21
-30
-37
-45
-50
-57
-62
-61
-67
-76
-80
-87
-92
-89
-84
-83
-81
-77
-71
-65
-56
-40
-27
-12
1
13
21
34
49
60
70
70
66
63
69
78
88
97
103
114
122
131
142
150
156
161
166
167
161
148
133
120
106
97
93
88
77
61
38
23
10
-7
-22
-39
-52
-62
-76
-88
-104
-115
-124
-130
-139
-147
-168
-194
-221
-251
-278
-314
-348
-375
-400
-418
-439
-456
-467
-479
-488
-498
-508
-517
-523
-522
-522
-519
-509
-497
-480
-455
-430
-406
-384
-363
-343
-331
-324
-319
-312
-298
-282
-269
-253
-232
-208
-181
-148
-113
-83
-54
-32
-12
2
14
24
31
37
46
47
48
45
46
53
60
65
61
59
61
65
74
87
93
98
107
118
131
142
149
149
147
145
140
130
112
89
66
38
8
-33
-81
-126
-173
-212
-243
-283
-337
-398
-466
-528
-586
-639
-687
-739
-784
-824
-855
-873
-886
-896
-898
-896
-884
-870
-855
-842
-823
-798
-774
-748
-721
-694
-658
-619
-578
-537
-494
-452
-412
-374
-332
-299
-272
-254
-238
-228
-221
-219
-214
-212
-210
-202
-195
-189
-178
-165
-146
-122
-99
-82
-62
-45
-26
-12
2
21
30
40
54
64
76
88
93
96
98
98
96
101
98
91
87
78
70
56
43
27
3
-18
-44
-72
-103
-134
-162
-195
-230
-257
-288
-315
-337
-357
-371
-389
-398
-403
-405
-404
-405
-401
-391
-383
-381
-374
-368
-361
-355
-356
-358
-350
-335
-318
-299
-270
-246
-221
-192
-163
-141
-126
-115
-112
-113
-118
-130
-148
-166
-187
-204
-217
-235
-262
-288
-312
-329
-333
-336
-334
-325
-299
-261
-211
-156
-95
-28
44
149
266
361
430
484
540
607
660
686
693
674
657
649
650
656
660
654
642
629
616
607
594
580
561
532
505
472
432
394
352
303
255
204
149
95
41
-5
-48
-89
-123
-157
-187
-209
-227
-242
-250
-250
-243
-228
-210
-192
-171
-146
-118
-87
-52
-16
18
54
89
123
159
205
251
290
328
360
389
415
431
444
450
452
449
438
429
414
401
383
362
335
307
280
247
216
177
144
109
77
46
20
-3
-23
-33
-40
-47
-51
-59
-64
-64
-73
-79
-91
-104
-117
-129
-143
-156
-176
-199
-218
-236
-252
-264
-270
-278
-282
-280
-277
-269
-266
-268
-256
-236
-213
-188
-169
-166
-167
-169
-176
-186
-198
-217
-234
-248
-260
-273
-285
-294
-300
-305
-308
-308
-304
-299
-297
-296
-295
-303
-307
-316
-326
-329
-329
-327
-324
-318
-306
-292
-278
-264
-244
-217
-192
-171
-162
-148
-129
-96
-60
-34
-15
-7
-1
6
13
24
28
31
32
29
20
6
-9
-25
-44
-74
-117
-164
-216
-269
-332
-398
-458
-519
-582
-641
-693
-736
-781
-821
-856
-892
-924
-951
-969
-987
-996
-1002
-1008
-1008
-1006
-993
-979
-967
-952
-941
-919
-890
-856
-820
-773
-724
-675
-620
-568
-521
-479
-440
-410
-390
-379
-372
-367
-359
-356
-350
-333
-325
-307
-284
-255
-227
-195
-167
-137
-111
-88
-68
-44
-18
7
36
62
88
112
133
157
175
193
218
241
272
303
327
357
387
412
439
468
492
513
534
553
566
574
575
572
562
550
533
514
493
472
449
427
404
375
341
302
263
218
171
122
72
21
-32
-91
-154
-210
-268
-322
-379
-423
-457
-493
-519
-543
-566
-591
-616
-638
-659
-679
-693
-704
-709
-704
-693
-673
-649
-624
-591
-558
-526
-498
-473
-451
-436
-423
-414
-404
-397
-387
-371
-356
-328
-288
-250
-216
-182
-142
-95
-57
-31
-5
26
51
70
90
110
127
145
159
176
195
212
234
257
288
317
349
380
409
437
469
500
529
550
569
582
598
607
613
618
617
616
611
604
596
584
568
553
531
514
495
478
455
428
404
375
347
312
270
231
190
153
122
91
58
25
-12
-52
-92
-131
-170
-210
-254
-296
-336
-381
-428
-478
-528
-570
-616
-660
-702
-744
-780
-813
-846
-874
-907
-942
-970
-994
-1010
-1022
-1034
-1035
-1032
-1018
-988
-950
-906
-857
-802
-747
-687
-624
-556
-486
-414
-347
-280
-222
-173
-126
-89
-56
-18
9
36
60
80
101
123
146
166
186
206
228
250
272
291
309
324
335
343
347
348
348
343
332
321
304
291
275
257
241
222
194
167
141
114
85
63
42
26
20
13
3
-12
-33
-53
-70
-87
-101
-114
-132
-150
-174
-200
-225
-252
-278
-296
-318
-333
-352
-372
-390
-411
-428
-437
-436
-428
-421
-414
-412
-413
-414
-411
-402
-389
-373
-354
-342
-327
-317
-308
-301
-297
-298
-297
-302
-308
-314
-321
-324
-326
-323
-321
-317
-312
-307
-304
-302
-296
-290
-282
-285
-289
-291
-294
-293
-292
-289
-285
-277
-268
-254
-239
-222
-205
-188
-165
-145
-124
-101
-76
-51
-25
3
29
57
86
112
135
158
179
201
224
243
266
287
302
318
328
333
337
335
334
323
310
292
267
241
208
171
133
96
54
16
-19
-55
-86
-123
-155
-188
-219
-247
-267
-288
-304
-316
-326
-332
-334
-334
-333
-328
-321
-310
-293
-271
-245
-217
-190
-162
-135
-113
-87
-68
-45
-25
-4
17
31
49
61
72
84
100
113
128
145
159
173
188
203
216
232
244
255
265
269
274
273
273
273
273
269
269
268
268
267
267
268
269
268
270
272
274
273
274
275
273
272
270
264
254
246
233
223
211
197
175
154
137
120
134
191
88
-149
-218
-147
-90
-75
-77
-47
2
47
69
72
79
101
123
147
164
177
190
199
204
210
203
193
183
178
186
198
207
214
215
215
217
218
220
219
220
215
212
207
206
204
200
190
179
165
150
139
128
122
117
109
102
97
92
88
83
75
68
59
52
47
40
38
31
30
33
36
49
60
75
91
103
116
125
132
133
127
120
107
85
61
36
12
-14
-38
-59
-82
-101
-118
-134
-147
-162
-175
-196
-217
-242
-271
-303
-339
-377
-418
-460
-504
-550
-592
-634
-675
-713
-747
-779
-809
-834
-857
-878
-893
-905
-912
-920
-921
-921
-915
-906
-892
-869
-850
-827
-801
-775
-747
-721
-689
-658
-627
-591
-552
-515
-477
-434
-389
-340
-291
-245
-196
-150
-101
-56
-17
17
49
75
95
113
125
132
136
133
132
126
115
103
90
80
70
60
47
33
16
-2
-20
-34
-46
-52
-54
-57
-54
-45
-41
-30
-19
-12
1
11
14
15
12
10
13
13
15
19
24
34
44
49
60
63
68
85
96
104
113
118
127
140
153
170
188
208
229
265
367
334
130
56
117
178
178
163
183
230
280
304
299
294
292
301
316
330
344
365
379
394
408
408
399
393
384
378
379
371
361
346
326
319
306
290
281
271
264
258
253
250
250
250
251
248
241
228
216
209
195
180
169
150
139
129
116
109
101
94
93
90
84
82
78
76
79
85
93
103
120
133
146
161
171
188
198
206
223
229
241
251
247
252
249
244
246
242
233
229
221
217
215
201
192
176
156
133
110
85
65
44
26
10
-4
-15
-25
-33
-39
-41
-48
-50
-54
-61
-62
-71
-81
-88
-96
-102
-107
-111
-115
-118
-116
-116
-110
-106
-98
-90
-83
-71
-58
-47
-36
-26
-19
-3
7
17
27
30
35
43
40
45
48
51
58
59
70
82
83
84
78
69
55
29
-2
-40
-83
-123
-171
-223
-279
-341
-400
-462
-525
-583
-637
-687
-735
-783
-825
-868
-909
-942
-978
-1004
-1031
-1064
-1091
-1118
-1149
-1180
-1208
-1238
-1265
-1293
-1323
-1347
-1364
-1385
-1397
-1403
-1409
-1412
-1408
-1406
-1395
-1380
-1359
-1334
-1308
-1276
-1244
-1217
-1179
-1145
-1110
-1064
-1026
-983
-939
-897
-847
-791
-734
-665
-598
-526
-449
-376
-300
-222
-153
-80
-8
64
133
189
250
301
351
403
450
496
543
586
626
664
694
720
734
740
740
724
704
679
649
618
580
544
513
478
449
425
399
380
360
349
340
328
322
315
311
308
296
287
274
253
236
211
179
138
89
41
3
-26
-40
-32
-5
49
124
230
365
519
694
884
1081
1279
1471
1650
1823
1977
2099
2195
2261
2292
2288
2246
2162
2039
1890
1720
1533
1340
1155
984
833
703
588
489
405
345
313
291
270
237
194
162
127
74
8
-67
-141
-205
-253
-293
-351
-432
-513
-581
-625
-645
-653
-668
-700
-756
-826
-902
-990
-1078
-1182
-1308
-1447
-1577
-1695
-1794
-1869
-1919
-1949
-1965
-1961
-1927
-1878
-1823
-1770
-1708
-1643
-1567
-1493
-1421
-1339
-1253
-1161
-1058
-948
-833
-712
-589
-465
-339
-219
-103
8
117
224
327
426
520
614
700
790
873
951
1020
1077
1119
1147
1161
1151
1128
1084
1015
929
827
710
575
438
295
149
13
-113
-229
-322
-403
-465
-512
-541
-553
-543
-521
-483
-437
-380
-318
-258
-200
-147
-99
-59
-32
-14
-6
-10
-22
-57
-103
-142
-170
-192
-218
-251
-295
-347
-400
-460
-508
-539
-555
-550
-537
-518
-499
-478
-450
-414
-366
-302
-230
-149
-60
33
128
259
424
359
232
330
497
640
709
760
914
1060
1121
1141
1148
1153
1120
1053
1018
1033
1064
1087
1102
1116
1118
1110
1084
1051
1008
954
898
838
771
696
617
525
428
327
223
123
26
-62
-140
-209
-269
-323
-370
-407
-441
-465
-483
-494
-499
-503
-498
-486
-463
-442
-418
-401
-386
-372
-360
-352
-343
-334
-326
-316
-308
-301
-295
-287
-276
-257
-237
-213
-190
-165
-136
-104
-75
-41
-1
40
85
130
172
212
249
282
314
341
364
382
392
399
401
395
381
363
342
314
278
242
203
165
121
83
43
6
-27
-64
-92
-119
-140
-157
-168
-176
-174
-173
-164
-149
-134
-115
-97
-76
-58
-40
-22
-9
4
14
26
38
47
60
75
87
101
112
112
114
110
97
82
60
37
13
-11
-34
-55
-74
-87
-93
-101
-108
-114
-116
-113
-113
-123
-132
-140
-153
-163
-172
-185
-193
-196
-196
-186
-175
-164
-151
-136
-122
-111
-98
-89
-82
-76
-74
-75
-79
-86
-95
-103
-110
-115
-116
-117
-116
-115
-113
-114
-111
-110
-108
-102
-106
-106
-108
-112
-120
-135
-152
-173
-197
-221
-251
-281
-281
-322
-518
-668
-639
-573
-550
-574
-589
-562
-518
-494
-488
-487
-472
-440
-397
-360
-326
-297
-268
-239
-210
-186
-169
-152
-137
-115
-94
-76
-61
-52
-47
-47
-51
-60
-76
-94
-111
-131
-148
-163
-180
-194
-215
-228
-238
-247
-247
-245
-240
-227
-215
-197
-179
-167
-150
-136
-124
-109
-99
-92
-92
-97
-98
-101
-103
-102
-113
-120
-129
-138
-144
-149
-157
-161
-163
-160
-155
-145
-132
-114
-93
-71
-45
-24
-8
-3
-3
-8
-16
-26
-36
-47
-56
-62
-63
-61
-54
-40
-28
-13
5
24
41
59
77
101
126
151
175
197
217
235
258
282
307
339
372
398
424
449
469
494
521
542
560
580
593
605
615
614
618
619
619
622
617
605
596
582
567
556
543
528
516
501
486
472
459
452
446
442
435
426
419
407
399
394
392
386
375
368
357
340
324
302
279
253
218
187
156
126
99
77
53
28
6
-19
-39
-58
-76
-91
-106
-122
-133
-146
-157
-167
-175
-176
-174
-165
-150
-138
-125
-115
-100
-83
-66
-48
-30
-14
5
22
40
57
69
80
87
92
97
94
91
90
77
57
37
15
-14
-41
-64
-90
-117
-143
-170
-197
-225
-254
-284
-310
-333
-359
-390
-417
-445
-470
-493
-516
-524
-533
-536
-538
-543
-539
-539
-534
-523
-513
-503
-496
-485
-479
-473
-464
-457
-444
-434
-430
-422
-416
-413
-411
-409
-399
-388
-375
-358
-344
-328
-308
-291
-270
-252
-233
-212
-197
-180
-166
-152
-131
-114
-101
-89
-83
-78
-77
-75
-71
-72
-70
-70
-73
-77
-74
-71
-60
-53
-38
-17
6
35
63
94
125
151
177
201
222
236
245
253
259
261
259
254
250
245
238
235
235
237
241
252
263
278
292
304
314
322
328
326
322
317
311
300
291
282
276
271
267
262
259
255
250
243
236
229
220
213
200
185
167
146
120
97
76
51
21
-7
-34
-64
-102
-142
-182
-219
-253
-285
-320
-355
-388
-422
-450
-479
-509
-535
-560
-584
-602
-615
-623
-631
-634
-639
-641
-641
-641
-636
-635
-631
-625
-624
-617
-613
-600
-582
-566
-546
-524
-504
-481
-453
-418
-381
-341
-298
-258
-214
-172
-129
-87
-45
-1
47
91
132
177
217
250
280
310
330
350
361
373
390
404
426
447
463
481
495
499
503
505
505
505
505
503
503
498
487
474
453
433
412
391
372
348
329
311
292
281
273
267
266
273
282
299
323
344
367
410
473
552
623
670
693
706
714
725
735
762
823
923
1011
1037
997
926
888
904
930
879
699
415
76
-288
-672
-1086
-1525
-1952
-2344
-2691
-2974
-3195
-3358
-3469
-3529
-3544
-3513
-3451
-3369
-3279
-3183
-3072
-2947
-2798
-2632
-2454
-2261
-2058
-1846
-1621
-1384
-1141
-887
-636
-390
-148
81
299
507
699
873
1026
1154
1262
1348
1410
1459
1473
1470
1466
1454
1426
1388
1349
1308
1274
1233
1192
1158
1124
1093
1071
1055
1038
1034
1034
1042
1055
1068
1083
1093
1100
1099
1089
1072
1042
1006
967
922
873
825
779
731
687
644
602
563
530
496
472
445
427
408
392
381
375
370
368
365
357
342
315
280
238
191
147
106
64
29
34
-16
-242
-403
-416
-413
-429
-474
-520
-541
-562
-597
-650
-711
-756
-786
-805
-825
-846
-864
-875
-873
-864
-850
-833
-814
-783
-739
-680
-616
-549
-472
-398
-325
-248
-171
-100
-28
36
94
151
205
263
319
369
414
455
490
523
549
575
594
608
618
619
614
605
591
573
553
525
487
449
403
354
301
251
200
155
110
66
24
-13
-46
-77
-107
-137
-165
-194
-217
-242
-265
-283
-293
-297
-303
-311
-315
-325
-333
-340
-345
-348
-352
-355
-364
-375
-388
-406
-423
-439
-454
-464
-474
-479
-477
-474
-465
-456
-443
-425
-411
-391
-372
-361
-349
-343
-333
-326
-319
-313
-311
-309
-312
-314
-314
-316
-313
-310
-308
-305
-299
-294
-282
-267
-252
-229
-206
-184
-158
-136
-110
-91
-69
-45
-24
-1
23
47
75
103
126
147
172
197
222
252
283
314
342
367
391
412
431
445
458
466
474
476
477
481
488
489
488
480
470
457
437
421
402
384
368
346
321
293
266
241
215
190
165
141
121
104
89
74
54
40
21
8
-4
-24
-41
-58
-80
-97
-117
-135
-153
-176
-201
-228
-261
-295
-325
-361
-396
-435
-476
-514
-555
-587
-614
-642
-662
-680
-697
-705
-711
-710
-702
-687
-671
-644
-620
-591
-560
-534
-502
-470
-446
-418
-390
-361
-320
-287
-250
-213
-172
-125
-76
-21
31
84
130
174
218
256
292
325
352
377
398
413
428
435
437
438
436
431
429
418
408
397
382
369
353
335
322
305
289
282
270
257
244
225
207
188
174
160
148
133
122
108
96
80
59
49
48
52
50
46
44
63
96
119
131
142
162
193
228
256
280
296
307
316
318
321
323
321
312
295
276
254
227
197
167
137
106
78
46
14
-15
-51
-84
-114
-143
-170
-197
-229
-254
-287
-320
-353
-384
-407
-433
-455
-472
-487
-499
-504
-509
-510
-509
-508
-499
-488
-480
-470
-464
-453
-442
-433
-420
-407
-395
-379
-356
-335
-307
-277
-243
-203
-166
-122
-74
-30
13
56
100
140
180
217
250
280
302
319
335
344
351
354
358
360
359
359
356
357
360
365
372
381
396
407
411
416
420
421
421
422
414
406
400
391
383
370
356
340
316
300
280
262
249
233
218
204
185
170
152
136
121
100
85
69
50
38
23
15
8
-2
-8
-17
-25
-31
-33
-39
-45
-52
-65
-78
-92
-107
-125
-145
-170
-195
-220
-247
-272
-298
-321
-347
-371
-394
-420
-443
-462
-484
-502
-518
-534
-551
-567
-577
-588
-595
-596
-598
-594
-587
-583
-571
-562
-544
-522
-500
-471
-438
-397
-350
-290
-231
-159
-86
-10
68
142
212
276
340
395
445
492
531
562
586
609
626
639
648
657
667
679
693
703
712
723
728
733
734
731
723
709
694
676
657
636
618
602
586
566
547
531
518
506
498
486
479
471
460
455
440
430
422
410
399
384
366
353
332
316
302
288
271
253
232
216
202
186
167
144
120
90
59
22
-24
-69
-119
-172
-218
-263
-303
-339
-363
-384
-397
-405
-411
-409
-407
-401
-390
-383
-378
-375
-380
-381
-381
-372
-358
-340
-318
-298
-277
-252
-232
-215
-204
-187
-164
-129
-96
-61
-27
2
35
62
88
112
132
140
143
142
137
136
131
123
113
106
109
110
109
105
101
98
93
88
89
86
85
85
85
85
83
77
70
63
56
52
45
41
35
25
17
4
-10
-20
-37
-52
-68
-83
-95
-102
-107
-108
-110
-108
-105
-99
-95
-89
-84
-84
-82
-79
-75
-71
-71
-75
-83
-90
-104
-118
-132
-142
-146
-151
-160
-166
-169
-172
-173
-168
-167
-166
-167
-167
-173
-182
-190
-197
-204
-211
-214
-226
-240
-260
-285
-308
-334
-358
-382
-407
-426
-451
-470
-489
-505
-522
-532
-538
-537
-535
-525
-512
-496
-480
-458
-444
-424
-404
-385
-369
-354
-340
-326
-309
-294
-276
-262
-241
-220
-197
-173
-154
-135
-117
-98
-76
-57
-39
-27
-19
-13
-8
-4
-5
-11
-20
-33
-52
-69
-93
-117
-145
-174
-204
-234
-270
-307
-344
-376
-410
-441
-470
-497
-521
-549
-572
-592
-611
-621
-627
-629
-629
-635
-641
-639
-636
-633
-624
-611
-598
-582
-571
-560
-546
-527
-497
-465
-430
-387
-341
-293
-237
-183
-123
-66
-12
41
96
151
206
253
297
336
368
394
413
432
443
449
451
445
438
428
416
406
394
382
374
369
362
356
352
344
340
338
329
320
308
297
286
266
249
238
224
215
208
206
205
209
212
222
230
236
244
250
259
272
284
294
295
299
308
310
314
307
294
288
283
266
255
231
204
177
146
112
78
40
1
-35
-67
-92
-121
-148
-171
-184
-194
-201
-211
-220
-225
-229
-229
-232
-226
-222
-212
-201
-187
-170
-151
-132
-119
-106
-96
-84
-76
-68
-63
-63
-67
-71
-74
-81
-91
-103
-120
-136
-152
-171
-187
-209
-231
-246
-262
-271
-277
-284
-284
-282
-274
-268
-262
-257
-250
-244
-238
-230
-222
-213
-205
-199
-189
-177
-166
-154
-141
-132
-121
-102
-79
-60
-43
-28
-16
-4
5
6
7
5
-1
-6
-12
-17
-23
-29
-29
-24
-13
-3
8
18
32
43
57
67
79
90
98
107
113
123
133
149
165
185
205
228
253
281
310
332
354
374
392
416
433
449
461
474
485
487
493
490
485
478
465
452
437
424
416
410
404
396
391
381
371
363
354
343
326
310
291
276
262
248
236
231
228
227
230
235
243
255
267
276
290
305
324
345
361
377
395
408
415
418
420
418
413
403
390
377
360
347
331
319
303
285
268
249
228
198
162
129
95
61
33
3
-25
-48
-72
-88
-100
-110
-117
-131
-150
-183
-233
-252
-237
-225
-240
-274
-302
-315
-309
-295
-291
-289
-293
-295
-292
-292
-287
-275
-265
-252
-239
-223
-210
-201
-194
-189
-190
-189
-189
-195
-202
-210
-222
-233
-245
-256
-266
-267
-269
-267
-258
-245
-226
-213
-208
-187
-137
-79
-43
-34
-33
-18
15
50
80
99
114
124
138
151
169
187
205
217
225
231
230
223
215
204
192
182
170
156
143
130
119
107
96
87
77
61
45
26
0
-23
-44
-68
-87
-108
-130
-147
-159
-171
-182
-189
-195
-199
-201
-198
-199
-199
-200
-198
-204
-214
-223
-217
-195
-182
-183
-195
-205
-205
-197
-185
-178
-169
-161
-154
-142
-126
-103
-78
-55
-28
-5
17
36
52
62
70
76
75
69
63
54
42
32
25
18
12
8
-1
-13
-23
-36
-47
-59
-73
-85
-98
-116
-131
-148
-168
-181
-194
-209
-219
-231
-245
-253
-260
-261
-261
-264
-263
-259
-252
-244
-239
-225
-214
-200
-190
-183
-171
-165
-160
-147
-141
-136
-126
-118
-112
-112
-116
-113
-109
-105
-101
-96
-96
-99
-104
-111
-123
-132
-142
-151
-158
-166
-172
-177
-178
-175
-168
-160
-146
-132
-120
-111
-103
-96
-91
-90
-88
-85
-85
-80
-82
-76
-72
-71
-72
-77
-82
-93
-102
-109
-115
-115
-112
-109
-95
-83
-69
-47
-23
4
40
78
118
163
199
230
250
273
304
337
366
388
403
420
436
451
466
478
494
513
537
562
584
601
614
622
623
629
630
629
629
625
617
606
594
577
559
539
521
500
475
456
437
421
412
405
402
400
401
399
392
388
384
383
379
378
372
362
352
337
320
309
299
294
287
276
272
265
255
248
235
223
208
188
167
148
124
96
67
37
5
-31
-69
-106
-150
-194
-238
-285
-325
-363
-395
-419
-437
-449
-457
-460
-460
-456
-451
-442
-433
-424
-417
-406
-397
-393
-383
-373
-362
-345
-328
-301
-272
-237
-200
-162
-121
-80
-42
-3
30
63
91
114
136
154
173
185
191
201
200
200
199
197
193
183
171
153
126
93
54
13
-29
-77
-124
-170
-213
-253
-289
-321
-351
-370
-396
-416
-432
-450
-469
-490
-509
-530
-550
-570
-597
-622
-647
-671
-695
-713
-732
-747
-755
-760
-761
-762
-756
-752
-745
-725
-702
-676
-653
-624
-592
-559
-522
-483
-440
-394
-347
-304
-258
-213
-167
-120
-73
-27
13
52
85
110
139
155
173
185
198
209
217
227
235
243
255
265
279
292
310
327
338
352
362
370
380
386
387
391
388
383
374
362
352
344
333
322
310
304
294
285
269
251
233
213
198
183
169
158
151
140
134
127
120
112
106
94
84
69
50
33
10
-9
-35
-58
-80
-103
-127
-149
-171
-198
-219
-238
-255
-273
-289
-297
-303
-307
-299
-290
-277
-258
-237
-211
-183
-153
-122
-88
-54
-22
7
36
61
86
112
134
158
180
205
228
253
280
301
318
339
355
375
392
404
414
423
426
426
420
414
406
397
389
376
363
350
331
307
285
260
232
206
181
157
134
113
88
71
53
33
16
-2
-16
-25
-33
-41
-49
-54
-57
-64
-61
-61
-59
-51
-40
-24
-5
17
38
63
86
113
139
166
187
206
221
231
236
240
243
248
251
254
252
251
249
250
249
247
245
243
236
231
228
225
225
222
214
204
197
194
186
176
165
155
149
138
120
102
83
66
56
45
34
23
16
8
7
4
-3
-5
-4
-3
-2
0
1
4
7
13
17
20
23
33
41
46
49
49
50
52
57
63
65
67
72
76
78
82
83
81
79
74
71
65
56
47
36
23
6
-12
-37
-59
-87
-120
-154
-196
-238
-286
-340
-391
-442
-499
-553
-608
-668
-722
-778
-832
-883
-930
-975
-1016
-1059
-1091
-1110
-1126
-1143
-1162
-1183
-1193
-1193
-1184
-1171
-1162
-1150
-1136
-1114
-1077
-1033
-983
-922
-843
-752
-665
-608
-575
-545
-510
-473
-431
-384
-348
-320
-279
-232
-172
-115
-63
-15
24
48
67
76
81
84
79
73
66
62
65
70
74
76
79
81
86
97
107
114
109
99
84
68
56
48
39
41
67
118
201
310
440
587
756
937
1124
1314
1495
1660
1817
1972
2121
2256
2359
2422
2443
2416
2338
2210
2037
1818
1567
1291
994
701
418
153
-87
-300
-482
-632
-748
-825
-871
-895
-899
-900
-908
-905
-884
-855
-835
-837
-855
-873
-882
-892
-891
-877
-846
-807
-762
-721
-679
-639
-601
-561
-527
-493
-470
-459
-462
-481
-518
-576
-626
-674
-731
-801
-873
-917
-931
-924
-900
-866
-836
-813
-792
-765
-734
-697
-652
-583
-489
-382
-270
-145
-5
156
328
497
657
813
963
1106
1247
1373
1492
1600
1704
1805
1900
1994
2079
2152
2216
2265
2289
2290
2265
2213
2127
2011
1862
1697
1515
1318
1110
892
681
476
289
123
-32
-171
-293
-385
-454
-499
-528
-557
-579
-590
-598
-596
-589
-576
-556
-537
-521
-506
-492
-479
-471
-468
-472
-482
-499
-521
-544
-573
-603
-631
-663
-693
-724
-757
-793
-830
-867
-903
-934
-966
-993
-1018
-1039
-1057
-1066
-1070
-1067
-1056
-1042
-1012
-974
-930
-870
-801
-723
-629
-526
-419
-305
-191
-71
48
162
280
389
496
599
691
773
849
912
963
1011
1049
1075
1095
1110
1115
1117
1107
1096
1079
1055
1025
993
955
917
878
833
791
748
707
665
623
586
545
509
478
450
428
406
388
369
349
330
309
291
273
253
234
213
195
181
163
147
131
113
98
81
63
46
28
17
8
-6
-28
-58
-83
-101
-121
-147
-180
-218
-256
-298
-340
-381
-417
-445
-476
-506
-533
-557
-580
-605
-627
-646
-664
-680
-700
-720
-741
-763
-781
-794
-804
-806
-804
-802
-792
-786
-773
-756
-743
-726
-705
-687
-663
-634
-600
-559
-512
-467
-417
-365
-317
-264
-213
-163
-112
-64
-18
28
72
112
150
181
215
246
278
310
341
371
402
437
470
503
536
566
594
618
638
653
662
668
663
657
645
636
624
615
608
602
600
603
608
616
627
641
656
670
687
701
710
715
713
708
693
671
649
624
588
549
503
452
403
352
296
241
187
131
75
19
-32
-81
-132
-179
-227
-269
-305
-343
-375
-405
-436
-460
-482
-498
-513
-523
-529
-530
-530
-523
-516
-504
-487
-466
-443
-415
-384
-348
-309
-272
-234
-196
-157
-116
-80
-47
-19
3
23
36
46
49
45
30
15
3
-17
-35
-53
-76
-103
-139
-176
-217
-262
-313
-360
-408
-448
-481
-505
-527
-545
-560
-570
-565
-560
-544
-528
-508
-482
-462
-446
-432
-411
-381
-355
-343
-338
-333
-324
-313
-305
-300
-286
-261
-227
-199
-185
-189
-200
-205
-212
-223
-238
-253
-265
-280
-301
-314
-314
-306
-301
-307
-329
-351
-363
-364
-356
-350
-351
-358
-365
-372
-372
-359
-336
-301
-266
-230
-195
-166
-134
-98
-48
12
22
-31
-57
2
99
180
242
301
377
465
546
610
663
716
772
824
870
907
934
964
991
1013
1032
1045
1053
1064
1074
1081
1085
1083
1075
1058
1035
1007
970
926
877
825
766
706
646
584
523
451
376
313
266
223
180
133
86
43
-1
-42
-83
-126
-167
-208
-245
-281
-314
-337
-361
-377
-385
-393
-393
-392
-386
-371
-353
-334
-316
-294
-260
-214
-259
-388
-427
-366
-301
-270
-266
-249
-208
-151
-106
-79
-77
-104
-107
-68
-22
10
25
35
56
71
72
58
29
4
-13
-26
-33
-50
-77
-101
-127
-150
-180
-218
-250
-279
-305
-324
-321
-276
-196
-198
-302
-395
-469
-513
-525
-531
-517
-479
-425
-373
-324
-290
-264
-214
-158
-93
-32
23
73
107
134
148
131
109
93
82
70
57
45
33
28
23
-11
-80
-125
-145
-163
-161
-146
-140
-141
-142
-138
-125
-107
-89
-68
-48
-25
-4
10
22
36
49
59
70
76
78
73
61
44
26
6
-16
-38
-55
-66
-76
-86
-93
-102
-97
-91
-121
-164
-168
-120
-57
-71
-156
-208
-229
-247
-252
-258
-257
-251
-235
-203
-197
-208
-217
-213
-199
-178
-158
-143
-129
-114
-94
-64
-38
-12
9
29
47
63
76
81
85
84
83
81
75
64
49
34
17
1
-20
-41
-63
-84
-111
-135
-162
-189
-215
-238
-261
-282
-302
-321
-335
-343
-346
-346
-339
-327
-313
-294
-273
-253
-233
-207
-183
-159
-137
-116
-101
-88
-76
-70
-66
-60
-58
-56
-56
-58
-57
-55
-50
-45
-38
-31
-21
-11
-3
1
12
21
30
44
57
67
80
91
102
111
122
128
138
148
159
172
163
127
122
167
215
247
286
333
362
363
336
293
269
251
239
254
285
322
362
394
417
431
459
499
546
588
628
666
696
720
736
739
738
729
718
701
681
656
623
585
546
501
461
428
394
368
341
323
299
270
233
195
158
121
86
50
18
-10
-31
-46
-52
-46
-31
-2
36
81
131
189
253
324
400
479
555
616
664
706
764
854
984
1126
1224
1269
1298
1353
1441
1536
1602
1582
1454
1221
891
505
83
-371
-847
-1319
-1753
-2139
-2467
-2737
-2948
-3097
-3187
-3223
-3212
-3166
-3100
-3022
-2938
-2845
-2731
-2593
-2436
-2263
-2079
-1881
-1671
-1442
-1206
-971
-731
-504
-286
-75
121
311
492
654
803
938
1047
1139
1215
1277
1323
1359
1380
1379
1368
1332
1293
1244
1187
1131
1067
1005
933
869
804
740
680
620
563
507
457
410
358
308
249
182
110
31
-53
-151
-251
-353
-459
-560
-658
-742
-821
-888
-941
-986
-1018
-1044
-1051
-1051
-1037
-1023
-980
-995
-959
-1130
-1051
-888
-1036
-929
-955
-989
-1116
-832
-395
-209
-97
-348
-442
-318
-218
-47
50
-5
-74
-108
-183
-371
-626
-821
-848
-745
-652
-628
-671
-725
-710
-619
-510
-413
-283
-127
32
185
318
424
528
632
724
797
856
907
953
984
1017
1049
1057
1030
970
903
837
769
687
580
453
316
178
55
-56
-150
-235
-314
-388
-463
-528
-584
-633
-675
-703
-710
-706
-691
-662
-628
-581
-518
-452
-376
-287
-199
-110
-18
70
161
247
333
411
493
566
632
680
721
759
784
806
816
824
828
825
815
799
771
742
704
665
624
581
534
483
430
377
329
280
235
198
161
133
110
96
85
80
83
91
107
123
140
165
190
220
253
291
334
378
423
467
511
555
597
639
680
715
747
773
789
799
801
792
776
756
729
693
648
599
542
488
435
388
335
284
238
196
157
121
85
54
24
-7
-35
-64
-92
-121
-148
-177
-216
-255
-297
-348
-399
-454
-515
-577
-637
-697
-756
-812
-866
-912
-954
-987
-1018
-1044
-1067
-1085
-1098
-1105
-1105
-1095
-1081
-1065
-1046
-1024
-999
-971
-936
-901
-852
-792
-724
-659
-601
-549
-498
-441
-381
-322
-267
-213
-156
-100
-37
21
72
118
165
207
254
299
340
376
407
435
462
489
519
545
566
590
612
627
648
657
671
683
688
691
699
702
703
704
702
702
699
689
680
674
665
658
651
647
638
628
607
588
572
558
544
529
511
491
469
450
429
411
394
379
364
355
348
342
337
329
327
325
323
323
317
308
301
295
291
295
302
309
322
335
344
361
379
397
416
429
441
448
449
446
432
414
393
369
340
313
282
245
208
168
128
89
48
12
-29
-66
-97
-127
-153
-176
-199
-223
-246
-271
-293
-321
-348
-374
-399
-423
-445
-465
-483
-497
-504
-503
-500
-490
-474
-450
-415
-380
-337
-295
-252
-210
-166
-119
-77
-39
-1
37
66
97
126
151
171
190
209
221
235
242
248
244
242
236
225
213
193
172
153
132
107
80
55
28
8
-9
-29
-43
-56
-69
-78
-86
-91
-97
-106
-117
-134
-144
-152
-159
-162
-163
-168
-172
-178
-181
-179
-183
-187
-194
-196
-202
-209
-212
-220
-242
-282
-324
-355
-367
-362
-353
-349
-348
-352
-351
-346
-332
-313
-296
-283
-273
-258
-242
-219
-199
-181
-164
-150
-132
-109
-83
-58
-32
-5
24
54
84
113
140
167
191
213
235
257
277
303
326
349
371
393
413
428
444
458
472
487
496
501
500
502
499
499
502
503
503
498
492
487
481
480
481
481
484
476
468
468
487
508
543
577
605
636
667
708
760
816
864
918
988
981
896
871
933
1013
1141
1209
1103
1013
998
990
943
897
884
868
850
845
855
896
955
1007
1052
1069
1058
1018
972
970
1004
1026
1029
1019
998
970
952
947
941
922
888
836
774
693
595
497
411
314
192
87
32
6
-37
-107
-186
-250
-318
-408
-504
-589
-658
-716
-768
-794
-808
-828
-858
-909
-955
-969
-971
-986
-993
-971
-929
-892
-875
-878
-882
-878
-878
-889
-911
-937
-952
-971
-1011
-1057
-1103
-1142
-1173
-1197
-1213
-1221
-1225
-1230
-1235
-1247
-1257
-1267
-1275
-1279
-1282
-1282
-1284
-1290
-1303
-1317
-1327
-1329
-1326
-1320
-1312
-1305
-1291
-1267
-1251
-1250
-1236
-1200
-1149
-1096
-1052
-1004
-942
-875
-806
-743
-688
-633
-584
-530
-477
-427
-385
-345
-307
-274
-241
-211
-181
-149
-113
-79
-41
-7
26
60
87
110
125
139
152
161
167
171
172
173
175
169
167
156
152
151
147
142
131
116
101
84
67
47
34
23
20
26
31
37
48
63
91
122
151
181
202
216
229
237
249
261
277
292
310
327
339
350
356
358
356
353
349
337
330
314
297
281
257
234
208
176
148
121
89
55
24
-8
-33
-57
-84
-107
-125
-147
-161
-172
-187
-201
-215
-228
-237
-251
-261
-267
-275
-279
-284
-287
-290
-297
-297
-297
-297
-297
-301
-300
-297
-303
-300
-298
-293
-295
-298
-301
-315
-330
-352
-373
-393
-417
-441
-462
-486
-509
-530
-548
-562
-566
-569
-567
-558
-548
-526
-500
-474
-443
-405
-361
-313
-261
-207
-149
-97
-45
7
49
85
115
136
156
170
174
175
167
160
154
145
134
126
115
106
101
94
91
91
91
93
92
91
87
82
78
76
76
76
77
82
87
88
94
100
107
108
108
103
102
102
102
102
102
105
107
111
108
108
105
107
113
120
129
142
152
167
181
194
209
219
222
227
229
229
224
216
210
204
199
195
192
187
180
170
165
154
148
138
132
126
124
117
116
110
102
96
89
88
86
85
86
89
92
100
110
114
121
126
130
136
139
143
147
150
151
153
155
153
154
151
155
159
159
163
163
164
167
170
173
176
177
180
182
178
172
168
160
151
139
122
111
105
97
86
75
60
52
56
63
75
82
84
85
86
97
108
114
117
121
128
133
137
138
139
139
136
132
123
114
104
90
73
61
45
28
11
-7
-17
-31
-43
-50
-59
-63
-69
-77
-83
-90
-95
-98
-103
-109
-120
-134
-154
-170
-183
-198
-204
-211
-218
-222
-222
-221
-223
-224
-225
-228
-230
-235
-245
-252
-261
-269
-272
-277
-285
-290
-299
-307
-316
-324
-343
-363
-383
-403
-418
-432
-447
-464
-483
-496
-507
-514
-516
-516
-517
-518
-517
-507
-498
-489
-478
-468
-458
-445
-432
-426
-415
-405
-390
-372
-353
-331
-308
-286
-259
-232
-207
-183
-165
-144
-122
-104
-85
-69
-57
-43
-33
-19
-11
-3
12
26
41
62
81
104
127
146
169
192
215
232
249
266
278
293
303
305
306
304
298
294
282
274
266
254
252
250
251
252
252
253
259
272
306
382
456
444
355
269
234
228
234
310
341
275
245
229
175
106
60
68
117
177
236
276
284
267
259
268
268
252
236
235
246
258
256
236
215
217
232
245
260
268
281
296
301
312
321
329
340
345
360
387
406
399
369
334
322
337
365
381
373
347
324
309
298
283
259
222
184
145
107
75
41
5
-27
-62
-99
-129
-167
-202
-235
-266
-287
-306
-325
-340
-353
-368
-378
-382
-383
-378
-369
-360
-342
-319
-298
-277
-257
-243
-225
-209
-200
-189
-178
-157
-128
-106
-82
-65
-50
-23
11
45
73
93
111
124
132
136
137
133
131
132
131
130
121
116
105
95
79
62
44
23
1
-21
-48
-70
-94
-119
-142
-169
-187
-210
-231
-248
-267
-274
-279
-276
-269
-261
-243
-222
-199
-162
-136
-106
-80
-53
-26
3
28
53
76
96
116
129
140
144
141
132
119
107
97
86
76
63
57
60
62
70
79
84
89
93
90
81
64
45
21
-5
-28
-53
-70
-80
-85
-101
-130
-168
-216
-263
-295
-307
-263
-166
-252
-492
-633
-650
-659
-710
-716
-659
-584
-507
-432
-356
-287
-213
-126
-47
16
113
241
314
320
307
314
347
382
398
397
390
370
347
321
298
288
280
271
266
263
262
258
246
230
219
209
198
183
165
147
121
87
49
15
-20
-54
-83
-111
-133
-151
-169
-177
-173
-163
-148
-123
-92
-62
-22
21
57
96
128
157
180
198
213
226
238
246
255
266
276
286
300
318
335
353
380
401
425
448
468
491
508
525
541
551
555
565
568
570
572
571
566
563
561
551
542
526
510
497
480
461
446
428
407
388
369
349
327
306
283
263
237
213
181
147
115
83
45
5
-34
-78
-123
-167
-216
-267
-323
-380
-434
-491
-541
-586
-628
-657
-676
-687
-690
-686
-684
-671
-645
-624
-600
-575
-556
-533
-506
-483
-459
-440
-422
-406
-395
-386
-370
-351
-339
-321
-298
-278
-251
-219
-192
-164
-135
-110
-80
-47
-20
9
43
70
96
124
143
162
184
198
213
223
234
244
251
258
263
266
274
278
278
282
290
295
299
303
306
315
316
319
314
301
287
270
251
230
202
175
149
124
95
64
32
2
-27
-53
-80
-110
-135
-158
-178
-197
-212
-224
-235
-248
-262
-284
-309
-339
-369
-403
-439
-474
-513
-556
-594
-631
-665
-689
-709
-719
-722
-722
-716
-706
-687
-659
-629
-592
-556
-524
-493
-455
-416
-371
-325
-277
-229
-181
-131
-83
-38
-3
28
58
79
101
123
138
151
157
160
159
155
150
141
128
121
117
110
104
98
88
80
69
65
66
59
46
32
22
12
4
-7
-19
-26
-32
-30
-32
-36
-41
-50
-50
-45
-45
-41
-37
-37
-37
-41
-43
-39
-34
-33
-35
-36
-37
-40
-38
-33
-30
-27
-22
-12
-8
-3
-2
-6
-8
-9
-15
-28
-43
-58
-68
-79
-84
-84
-80
-65
-50
-31
-12
12
33
48
64
82
89
94
98
98
98
95
91
84
78
67
48
28
8
-14
-28
-46
-72
-105
-137
-169
-203
-227
-250
-272
-295
-319
-337
-347
-353
-351
-342
-330
-312
-294
-270
-237
-205
-168
-126
-85
-46
-7
37
81
126
171
223
279
330
385
435
484
531
578
623
670
713
747
785
821
854
887
914
939
963
980
995
1001
999
982
977
946
944
737
827
950
865
917
792
637
572
748
1056
1038
694
428
393
427
429
431
445
444
421
379
325
271
228
201
184
185
193
184
159
146
142
146
152
151
147
145
149
160
176
200
228
252
270
294
314
330
336
335
334
329
332
337
338
336
327
310
292
276
258
237
220
194
168
141
108
75
46
17
-16
-47
-80
-115
-150
-190
-233
-276
-322
-367
-413
-463
-507
-554
-597
-640
-684
-721
-752
-783
-806
-829
-845
-853
-856
-857
-854
-846
-840
-828
-817
-801
-779
-754
-728
-697
-662
-622
-575
-529
-476
-427
-378
-326
-276
-228
-178
-132
-88
-49
-8
28
60
93
126
156
185
210
228
242
253
256
253
241
231
215
194
170
145
118
89
57
31
1
-29
-58
-90
-121
-152
-180
-193
-180
-165
-167
-176
-182
-181
-168
-153
-151
-165
-190
-224
-261
-299
-339
-374
-409
-431
-436
-415
-360
-275
-158
-18
142
318
505
694
878
1057
1227
1380
1511
1622
1700
1746
1754
1725
1661
1557
1418
1239
1034
811
586
366
158
-31
-200
-343
-463
-548
-601
-630
-630
-616
-597
-569
-538
-505
-470
-443
-411
-384
-363
-328
-293
-283
-316
-373
-402
-333
-356
-474
-524
-604
-725
-843
-936
-997
-1036
-1070
-1109
-1147
-1177
-1193
-1205
-1238
-1273
-1287
-1271
-1239
-1204
-1159
-1102
-1034
-973
-921
-875
-814
-733
-639
-548
-464
-377
-298
-217
-126
-40
35
117
198
286
370
455
546
649
760
863
970
1084
1197
1303
1406
1504
1584
1649
1695
1728
1744
1734
1698
1631
1542
1443
1331
1206
1066
920
777
633
494
357
223
100
-11
-105
-183
-249
-288
-313
-322
-307
-280
-242
-196
-150
-100
-53
-20
5
21
24
8
-14
-44
-85
-138
-197
-266
-335
-401
-466
-531
-594
-651
-708
-757
-802
-845
-880
-910
-932
-948
-959
-958
-953
-930
-898
-864
-816
-761
-695
-616
-529
-430
-325
-219
-109
12
135
260
383
499
614
724
829
923
1005
1076
1133
1186
1234
1265
1391
1493
1315
1084
940
814
679
527
452
457
506
581
645
694
717
715
676
617
613
692
760
760
726
704
699
693
699
714
721
713
693
667
654
657
640
591
534
485
457
421
379
358
342
272
175
136
148
125
37
-36
-34
-1
32
65
83
82
73
80
99
132
179
227
251
238
218
219
239
269
289
282
258
217
166
114
56
-37
-134
-181
-201
-242
-334
-462
-569
-642
-713
-777
-824
-836
-814
-781
-739
-701
-660
-611
-556
-511
-477
-452
-421
-381
-341
-304
-280
-264
-242
-216
-191
-175
-168
-175
-188
-210
-244
-287
-338
-388
-442
-491
-545
-599
-653
-698
-747
-796
-839
-884
-919
-947
-967
-981
-979
-968
-949
-925
-894
-859
-816
-765
-711
-655
-595
-535
-474
-410
-348
-288
-232
-180
-132
-88
-42
2
43
78
116
153
191
230
266
301
334
366
398
422
445
466
476
488
491
497
497
489
478
462
456
447
434
417
399
375
355
331
305
276
250
221
196
182
166
155
146
140
136
134
131
127
128
133
139
146
150
152
151
156
154
150
146
135
128
119
110
103
97
88
79
68
54
31
6
-21
-52
-86
-123
-165
-204
-248
-291
-336
-383
-425
-462
-497
-524
-549
-568
-578
-585
-589
-587
-584
-579
-565
-555
-544
-528
-517
-510
-500
-494
-484
-476
-470
-463
-456
-446
-434
-420
-410
-399
-384
-368
-354
-337
-324
-307
-288
-266
-243
-221
-195
-165
-135
-110
-84
-62
-45
-29
-19
-10
1
16
41
63
84
92
92
92
94
99
115
132
152
181
210
232
253
271
293
312
326
337
342
341
335
322
308
291
271
251
229
207
194
181
170
154
142
141
146
161
186
214
247
275
295
300
299
292
279
265
265
282
356
373
266
209
188
110
22
-7
61
147
130
78
54
34
45
95
167
237
283
310
331
354
343
284
220
197
196
188
177
179
189
201
215
222
225
220
211
193
172
155
129
102
61
18
-16
-53
-82
-101
-106
-109
-119
-131
-136
-130
-113
-95
-79
-65
-40
-14
15
50
87
129
170
209
242
266
285
296
303
306
305
304
299
291
280
272
266
260
257
252
248
246
242
238
232
229
222
220
215
209
205
195
185
178
168
159
144
131
120
105
85
62
36
13
-4
-26
-53
-85
-121
-151
-174
-195
-217
-237
-257
-283
-307
-335
-358
-378
-400
-423
-449
-476
-506
-540
-571
-600
-630
-657
-686
-719
-751
-778
-806
-834
-860
-881
-900
-914
-925
-940
-953
-964
-971
-971
-966
-960
-949
-928
-903
-868
-828
-786
-740
-695
-653
-610
-571
-537
-506
-482
-461
-444
-429
-420
-409
-402
-389
-375
-357
-340
-317
-293
-267
-237
-209
-180
-155
-132
-109
-88
-72
-62
-56
-54
-50
-47
-42
-39
-38
-36
-28
-18
-5
10
24
42
58
77
97
116
141
167
192
213
232
246
259
266
271
272
267
255
242
222
198
173
147
126
105
81
66
50
37
28
15
3
-11
-22
-35
-47
-57
-66
-75
-80
-82
-80
-70
-59
-46
-27
-8
9
24
34
51
59
69
78
83
89
96
103
108
114
119
123
129
139
144
145
140
134
124
108
92
80
64
53
46
38
33
31
32
38
39
47
56
65
75
81
89
96
100
102
106
109
116
123
136
151
170
192
216
245
274
301
330
359
385
404
423
435
441
439
431
421
401
380
356
331
308
289
278
272
275
288
304
329
362
405
451
503
557
613
671
736
807
878
938
981
998
1007
1020
1053
1109
1199
1298
1361
1370
1351
1339
1377
1437
1444
1313
1062
749
404
23
-420
-914
-1407
-1853
-2235
-2558
-2823
-3033
-3169
-3237
-3244
-3203
-3128
-3022
-2898
-2761
-2624
-2485
-2332
-2174
-2007
-1836
-1660
-1478
-1289
-1093
-887
-674
-459
-249
-45
148
323
484
625
753
862
950
1023
1079
1128
1159
1179
1194
1201
1200
1190
1185
1179
1169
1163
1150
1131
1105
1075
1024
959
887
816
769
756
822
850
746
547
361
311
285
242
239
278
337
389
418
408
357
301
259
237
238
247
261
274
287
299
313
324
325
318
303
288
277
260
231
187
131
67
-9
-99
-206
-315
-424
-532
-640
-749
-855
-954
-1038
-1109
-1169
-1219
-1260
-1284
-1291
-1282
-1263
-1233
-1189
-1141
-1082
-1015
-945
-867
-786
-702
-618
-531
-443
-359
-276
-201
-127
-48
26
96
157
209
249
287
314
336
352
354
352
348
339
324
310
301
295
291
286
286
287
290
299
307
317
326
337
346
360
374
384
399
407
416
424
429
433
432
428
426
421
416
409
403
399
398
396
391
386
375
362
342
320
290
260
227
194
166
145
124
105
86
75
66
58
56
58
61
58
64
67
71
75
77
79
84
83
83
83
83
86
94
100
105
112
118
128
139
147
160
166
168
172
173
173
167
162
150
139
127
110
90
70
46
22
-1
-29
-52
-76
-102
-127
-152
-176
-200
-221
-239
-255
-267
-279
-288
-293
-293
-290
-283
-276
-269
-260
-249
-243
-235
-230
-225
-223
-222
-222
-221
-218
-212
-199
-190
-181
-169
-163
-152
-141
-132
-126
-118
-115
-113
-116
-122
-128
-140
-154
-166
-183
-200
-217
-243
-265
-292
-315
-338
-361
-381
-397
-415
-427
-436
-439
-441
-439
-437
-432
-424
-410
-392
-371
-350
-325
-293
-259
-222
-186
-147
-107
-68
-28
13
53
91
129
173
217
260
302
342
381
418
455
483
509
528
542
554
562
568
570
571
569
562
552
541
530
513
494
474
449
433
409
385
356
324
290
257
219
184
150
112
77
40
13
-19
-45
-70
-88
-101
-111
-121
-134
-150
-178
-204
-234
-261
-282
-299
-305
-303
-293
-273
-247
-217
-178
-138
-97
-55
-16
18
53
83
108
132
155
180
205
226
249
269
289
312
332
355
377
401
420
440
457
467
477
479
481
478
471
460
443
425
403
384
364
342
315
289
261
234
209
186
165
144
125
101
79
57
30
0
-34
-70
-105
-138
-179
-218
-260
-304
-342
-378
-406
-432
-456
-481
-503
-522
-535
-550
-560
-568
-571
-570
-570
-565
-559
-550
-540
-529
-516
-497
-478
-458
-432
-402
-368
-333
-300
-269
-236
-205
-175
-148
-126
-106
-94
-87
-83
-83
-85
-84
-89
-95
-100
-106
-112
-112
-117
-113
-109
-101
-91
-77
-63
-51
-40
-33
-21
-15
-8
0
5
12
20
26
33
48
61
83
99
115
133
152
169
183
198
216
231
249
261
270
282
291
296
302
310
316
318
319
317
323
324
323
320
317
305
288
272
255
237
217
197
173
150
128
111
94
80
64
53
40
28
20
11
5
0
-9
-11
-10
-9
-2
4
10
17
28
37
49
61
75
90
107
124
141
158
174
188
199
211
221
233
245
258
267
273
277
278
287
292
301
302
300
297
288
278
268
255
238
225
208
193
177
157
142
130
114
99
84
75
65
55
44
44
51
53
55
61
70
87
101
107
110
106
103
99
90
86
84
87
95
105
116
123
126
128
131
137
143
151
159
163
156
140
118
87
55
24
-9
-34
-55
-75
-91
-104
-115
-119
-120
-118
-114
-108
-109
-107
-106
-106
-103
-104
-107
-108
-112
-116
-126
-135
-142
-149
-151
-149
-143
-135
-127
-120
-109
-97
-85
-72
-62
-55
-50
-47
-45
-48
-49
-51
-55
-56
-60
-65
-72
-81
-88
-89
-85
-84
-77
-72
-70
-66
-61
-58
-52
-49
-45
-41
-48
-55
-62
-69
-85
-101
-118
-137
-155
-176
-194
-214
-233
-252
-275
-300
-325
-350
-377
-400
-424
-441
-456
-473
-483
-493
-499
-507
-510
-511
-512
-508
-499
-486
-471
-452
-434
-414
-394
-373
-353
-332
-312
-288
-260
-229
-194
-155
-118
-79
-44
-9
22
53
81
106
127
143
158
172
185
193
203
212
222
236
246
255
259
261
257
253
247
241
236
225
214
205
192
181
167
153
143
128
111
99
88
81
75
73
68
64
62
56
55
51
48
47
50
55
61
63
65
67
67
69
65
57
48
39
28
15
-1
-19
-38
-56
-66
-77
-93
-105
-115
-126
-133
-138
-143
-147
-153
-161
-170
-183
-196
-209
-226
-244
-264
-283
-303
-323
-341
-359
-373
-382
-381
-374
-356
-331
-303
-265
-222
-171
-121
-75
-28
16
58
99
139
180
217
253
284
312
338
361
385
408
431
455
476
500
520
536
547
556
565
573
575
573
574
602
689
834
929
865
686
591
383
61
-102
-122
-75
-82
-231
-360
-248
16
197
212
221
358
555
682
730
744
762
782
785
779
783
786
775
769
774
789
805
806
802
790
765
731
693
639
589
510
364
235
193
185
154
97
28
-55
-130
-194
-296
-401
-438
-443
-467
-506
-542
-539
-501
-463
-437
-423
-408
-382
-355
-327
-301
-277
-254
-240
-232
-231
-233
-235
-237
-235
-238
-247
-253
-262
-262
-260
-259
-256
-251
-250
-247
-243
-243
-243
-248
-248
-248
-251
-254
-258
-264
-266
-268
-272
-273
-273
-272
-270
-265
-256
-249
-240
-232
-220
-209
-198
-191
-187
-188
-191
-193
-200
-210
-224
-236
-253
-266
-273
-284
-287
-284
-280
-272
-259
-242
-221
-197
-171
-142
-110
-77
-41
-10
28
64
101
138
171
203
237
271
298
330
356
384
404
415
415
406
396
381
369
355
343
327
308
289
269
251
237
219
199
180
158
137
115
95
78
63
61
59
64
65
64
66
72
81
92
104
122
145
162
182
201
222
244
267
295
322
349
374
399
427
450
470
486
500
507
510
517
516
516
508
497
475
455
447
447
445
441
427
411
404
401
405
408
417
422
426
423
418
407
389
368
330
278
211
137
64
-8
-72
-129
-181
-219
-241
-233
-190
-129
-62
-6
37
73
103
129
148
167
180
187
201
226
256
290
317
349
385
419
453
478
498
514
524
522
513
497
472
443
410
371
316
252
168
66
-42
-159
-279
-391
-490
-599
-732
-891
-1068
-1232
-1364
-1474
-1568
-1664
-1765
-1862
-1951
-2025
-2074
-2096
-2089
-2052
-1999
-1929
-1846
-1760
-1658
-1546
-1432
-1314
-1196
-1087
-992
-901
-814
-720
-626
-535
-451
-378
-311
-251
-196
-146
-93
-38
24
82
123
156
181
197
211
215
211
205
185
147
99
39
-24
-89
-162
-242
-323
-402
-472
-536
-591
-639
-677
-704
-722
-734
-738
-726
-687
-601
-514
-500
-556
-644
-700
-690
-636
-585
-576
-601
-629
-632
-623
-610
-598
-596
-591
-576
-559
-532
-506
-485
-460
-437
-410
-378
-345
-309
-275
-240
-199
-156
-110
-67
-28
11
49
84
120
155
190
224
254
277
299
317
333
347
362
372
383
391
397
407
418
426
439
452
457
466
470
474
472
467
457
448
437
423
406
392
381
368
354
336
318
300
287
273
254
240
225
211
197
178
158
133
106
82
55
31
9
-10
-27
-37
-48
-58
-65
-68
-69
-67
-64
-63
-56
-56
-52
-41
-36
-24
-6
9
30
48
64
84
103
120
138
149
157
164
170
173
178
174
167
164
155
149
134
119
102
82
63
44
22
-1
-30
-61
-97
-130
-168
-201
-234
-265
-287
-308
-322
-331
-336
-336
-330
-322
-312
-297
-283
-269
-256
-244
-232
-215
-202
-186
-168
-149
-126
-104
-82
-56
-32
-8
19
45
71
98
121
141
156
167
167
163
155
147
138
128
116
104
91
77
66
56
51
47
38
33
25
21
16
8
8
5
3
0
-2
-2
4
6
15
22
22
25
29
36
46
56
69
80
92
110
123
138
158
176
197
215
227
240
251
265
274
277
276
269
260
243
225
206
187
170
152
135
125
116
104
95
83
77
71
65
56
50
43
36
31
27
23
17
13
8
1
-5
-15
-25
-34
-49
-64
-86
-108
-134
-157
-178
-201
-218
-233
-241
-239
-233
-223
-207
-186
-162
-135
-105
-78
-49
-23
3
26
41
52
64
76
87
99
113
124
138
155
169
187
202
215
230
243
254
263
271
276
277
272
269
264
259
250
238
229
222
215
206
194
186
176
169
161
145
129
107
87
67
50
36
23
4
-7
-19
-28
-37
-43
-50
-57
-60
-60
-58
-55
-51
-47
-42
-35
-26
-15
0
17
39
60
83
104
121
138
159
177
195
208
218
224
232
234
230
224
211
190
164
129
90
47
5
-36
-76
-108
-135
-158
-171
-181
-180
-178
-170
-158
-142
-121
-103
-82
-65
-46
-32
-16
5
25
45
70
90
115
143
169
191
211
233
250
269
281
288
289
287
288
287
288
288
287
290
291
293
295
299
301
306
312
317
322
327
333
342
351
354
358
358
357
350
339
326
308
294
276
257
242
232
223
220
225
233
243
255
271
283
296
305
315
321
322
318
306
289
271
255
236
216
193
170
143
113
88
61
34
6
-20
-42
-62
-83
-106
-132
-155
-178
-199
-216
-229
-240
-247
-247
-245
-238
-230
-228
-221
-203
-177
-137
-109
-84
-57
-27
7
33
35
20
5
-14
-27
-33
-36
-35
-39
-51
-68
-82
-87
-85
-77
-67
-54
-40
-35
-26
-23
-18
-15
-8
4
19
30
42
53
60
74
78
81
82
84
89
94
98
102
109
123
135
138
135
135
144
150
154
144
124
105
86
69
55
40
14
-13
-43
-73
-100
-125
-153
-190
-232
-273
-306
-341
-386
-438
-486
-535
-572
-605
-633
-656
-684
-714
-741
-754
-763
-772
-779
-775
-762
-735
-706
-673
-637
-596
-551
-506
-462
-422
-385
-350
-320
-294
-264
-236
-207
-177
-149
-133
-114
-97
-83
-64
-47
-38
-34
-36
-43
-52
-60
-65
-65
-69
-75
-77
-75
-70
-66
-62
-54
-38
-19
-7
5
16
29
32
33
30
24
10
-11
-26
-46
-66
-77
-84
-82
-60
-15
55
153
276
424
591
774
968
1166
1365
1557
1726
1878
2008
2121
2215
2270
2287
2265
2199
2092
1950
1776
1580
1370
1156
945
735
540
366
208
75
-38
-145
-232
-301
-361
-424
-492
-553
-602
-647
-709
-776
-835
-882
-914
-952
-987
-971
-1010
-1088
-1136
-1298
-1491
-1630
-1767
-1882
-1943
-1983
-2026
-2062
-2086
-2090
-2058
-2012
-1987
-1965
-1958
-1990
-2038
-2066
-2040
-1965
-1870
-1781
-1702
-1609
-1490
-1349
-1199
-1055
-917
-782
-648
-521
-395
-273
-153
-39
81
197
313
429
536
639
736
828
915
993
1062
1121
1169
1208
1237
1255
1271
1280
1275
1267
1249
1218
1179
1134
1084
1026
964
904
844
784
722
666
609
550
499
453
416
389
364
346
336
327
319
312
300
289
273
251
217
178
131
73
1
-77
-166
-269
-376
-489
-606
-725
-841
-949
-1051
-1141
-1219
-1282
-1329
-1361
-1380
-1381
-1367
-1337
-1295
-1236
-1159
-1074
-978
-869
-752
-631
-506
-373
-242
-111
19
148
276
402
528
644
753
859
957
1045
1127
1197
1262
1315
1354
1383
1399
1404
1398
1372
1339
1294
1242
1187
1122
1054
982
913
845
779
723
667
620
579
546
522
500
486
477
473
475
483
490
502
521
542
564
589
619
645
670
700
732
768
799
825
842
853
859
855
845
821
789
748
701
645
586
529
472
416
364
311
263
216
170
135
104
79
68
55
46
42
38
41
47
52
56
58
52
39
16
-8
-36
-69
-101
-139
-174
-217
-244
-267
-402
-539
-538
-483
-453
-476
-424
-251
-262
-485
-639
-694
-715
-777
-873
-896
-836
-749
-676
-624
-577
-521
-464
-413
-362
-302
-236
-169
-113
-71
-41
-24
-12
-1
15
37
58
71
75
76
75
77
81
88
96
103
112
116
120
124
120
108
96
77
58
35
8
-27
-60
-98
-134
-169
-205
-237
-266
-290
-309
-326
-338
-347
-359
-368
-377
-388
-398
-408
-418
-426
-436
-447
-453
-464
-465
-457
-446
-427
-409
-392
-371
-349
-327
-300
-281
-259
-238
-222
-207
-198
-189
-182
-174
-169
-168
-172
-176
-178
-180
-180
-175
-169
-162
-158
-154
-148
-140
-140
-142
-146
-152
-159
-169
-181
-188
-191
-190
-186
-175
-165
-150
-132
-113
-82
-52
-18
18
53
89
128
166
204
247
288
325
361
390
417
439
454
464
466
463
461
451
438
420
394
362
325
288
251
214
174
131
89
44
1
-41
-80
-120
-161
-196
-230
-265
-295
-319
-331
-336
-333
-327
-319
-304
-287
-260
-236
-209
-186
-158
-131
-105
-75
-53
-37
-17
-2
15
28
44
59
72
87
94
102
112
120
124
131
141
156
174
193
213
237
265
294
328
358
384
411
432
452
473
482
493
500
506
511
514
518
514
512
514
512
512
506
498
491
485
481
475
466
452
442
428
419
406
389
379
367
350
334
314
294
274
247
223
199
172
149
123
96
69
39
12
-20
-50
-79
-103
-130
-156
-178
-203
-225
-244
-261
-272
-280
-287
-287
-284
-281
-270
-261
-253
-245
-242
-239
-232
-228
-219
-211
-198
-191
-187
-183
-179
-173
-174
-184
-196
-208
-216
-225
-233
-236
-232
-219
-209
-205
-196
-200
-202
-200
-195
-192
-188
-183
-173
-169
-168
-167
-164
-155
-136
-117
-98
-90
-84
-83
-79
-64
-45
-27
-20
-15
-13
-14
-21
-37
-44
-43
-47
-54
-64
-79
-90
-99
-110
-123
-139
-152
-162
-177
-189
-191
-188
-180
-175
-167
-158
-148
-132
-107
-78
-44
-18
4
28
49
68
84
93
98
99
100
98
94
92
88
81
63
37
-2
-62
-133
-207
-270
-318
-362
-400
-435
-471
-505
-541
-565
-581
-584
-579
-568
-553
-535
-505
-467
-426
-382
-339
-293
-247
-196
-150
-101
-53
-10
31
71
113
156
199
242
280
319
353
385
415
438
459
475
484
494
502
510
518
516
519
521
526
529
529
526
521
512
499
487
478
464
450
436
420
407
393
379
364
349
331
306
286
268
252
241
226
214
198
183
170
153
136
118
96
67
42
15
-12
-35
-59
-78
-99
-120
-134
-153
-164
-175
-187
-195
-200
-200
-195
-189
-178
-168
-160
-143
-131
-113
-94
-74
-47
-20
5
34
63
93
117
142
165
182
195
203
208
209
204
189
166
139
108
77
42
13
-13
-32
-42
-49
-56
-54
-45
-33
-17
1
13
21
27
33
36
38
40
44
39
34
26
12
3
-7
-21
-34
-47
-61
-75
-84
-87
-94
-91
-89
-91
-91
-89
-84
-75
-68
-57
-49
-33
-12
15
40
66
103
153
228
304
362
402
423
436
452
476
509
570
663
755
808
810
803
826
884
946
915
757
493
166
-193
-569
-964
-1377
-1788
-2168
-2483
-2719
-2883
-2989
-3043
-3050
-3006
-2916
-2794
-2646
-2487
-2332
-2172
-2002
-1822
-1627
-1421
-1207
-986
-760
-525
-289
-49
183
410
627
827
1018
1192
1353
1489
1605
1693
1753
1796
1815
1821
1809
1781
1738
1684
1619
1550
1477
1400
1327
1256
1189
1128
1069
1017
967
919
875
834
799
771
748
733
718
705
686
654
623
582
533
473
407
334
254
172
89
3
-76
-157
-234
-303
-367
-423
-466
-498
-513
-514
-508
-486
-460
-430
-393
-355
-322
-290
-262
-239
-219
-201
-188
-176
-166
-157
-143
-129
-109
-90
-75
-65
-60
-60
-66
-76
-90
-101
-111
-117
-115
-113
-109
-106
-107
-114
-122
-138
-161
-182
-208
-237
-265
-295
-322
-352
-382
-409
-436
-458
-477
-487
-497
-498
-492
-485
-468
-446
-417
-383
-344
-301
-253
-204
-149
-96
-46
1
46
88
117
142
164
179
191
201
204
205
207
204
200
195
192
185
178
167
152
140
124
110
103
94
89
81
70
63
55
47
41
33
27
21
18
13
14
11
10
16
17
20
18
12
1
-12
-25
-40
-58
-82
-112
-145
-187
-230
-275
-320
-360
-397
-435
-473
-505
-536
-553
-560
-566
-556
-540
-521
-496
-471
-446
-420
-387
-355
-324
-293
-260
-224
-191
-159
-129
-103
-82
-58
-37
-18
3
17
25
28
26
19
9
2
-5
-12
-17
-26
-34
-41
-51
-64
-75
-79
-83
-85
-87
-94
-96
-96
-97
-95
-89
-84
-75
-68
-62
-61
-67
-71
-72
-74
-76
-82
-83
-83
-83
-80
-78
-79
-84
-88
-93
-102
-114
-130
-148
-169
-191
-213
-231
-250
-267
-288
-305
-318
-333
-341
-351
-350
-344
-334
-311
-287
-258
-219
-176
-131
-83
-38
11
54
94
133
168
203
235
265
301
338
375
413
446
480
511
544
573
602
634
658
677
695
708
719
724
721
712
707
698
688
678
663
648
632
616
596
570
542
513
485
457
426
395
364
334
304
277
254
232
213
198
182
168
154
143
137
131
130
134
138
146
157
167
176
186
192
197
197
194
185
178
171
163
157
148
141
132
119
105
92
76
58
34
8
-22
-56
-90
-129
-173
-215
-259
-300
-341
-378
-409
-441
-469
-494
-515
-536
-553
-569
-585
-598
-610
-618
-624
-628
-630
-627
-620
-607
-583
-557
-524
-486
-443
-397
-347
-300
-246
-196
-148
-97
-52
-10
34
76
112
147
177
205
231
252
272
287
298
308
311
313
310
304
293
282
270
258
244
226
208
192
177
160
147
130
110
91
71
51
33
16
2
-11
-20
-27
-33
-41
-44
-45
-40
-36
-32
-25
-16
-6
11
30
46
66
86
105
126
147
166
184
208
228
251
272
293
316
336
360
385
411
436
463
482
498
512
520
528
535
536
537
535
523
508
491
471
449
423
398
371
343
319
294
272
257
241
226
215
207
198
194
191
187
185
182
178
170
158
141
124
105
89
73
50
33
19
4
-2
-7
-12
-11
-11
-5
3
10
22
37
51
72
88
100
115
121
128
136
139
146
154
161
171
178
189
199
209
223
235
250
258
267
274
276
274
270
267
263
252
243
223
203
185
167
150
133
113
101
88
76
70
65
58
52
43
32
22
8
0
-6
-18
-29
-38
-48
-59
-65
-73
-83
-93
-108
-121
-137
-158
-184
-213
-244
-278
-312
-350
-386
-418
-444
-469
-487
-497
-507
-510
-510
-508
-501
-491
-480
-469
-457
-440
-419
-402
-375
-344
-314
-275
-238
-195
-150
-103
-55
-7
35
76
111
138
164
185
201
211
220
221
221
212
200
190
180
169
161
151
142
134
127
122
113
108
98
87
75
58
37
11
-16
-45
-76
-108
-145
-185
-230
-276
-325
-379
-438
-496
-557
-620
-678
-741
-800
-853
-905
-945
-981
-1013
-1036
-1043
-1041
-1026
-995
-956
-910
-859
-805
-752
-701
-650
-602
-561
-519
-480
-449
-416
-386
-356
-324
-297
-267
-236
-210
-183
-153
-127
-103
-80
-64
-52
-44
-39
-36
-38
-46
-53
-63
-75
-84
-93
-103
-108
-122
-132
-141
-153
-161
-167
-178
-183
-190
-196
-196
-200
-206
-207
-209
-205
-197
-190
-177
-160
-142
-120
-99
-76
-52
-28
-6
21
43
65
81
94
103
111
118
127
138
148
162
174
187
205
219
236
252
265
280
292
303
312
317
319
323
325
329
331
328
329
328
329
328
324
323
322
319
322
318
317
320
320
323
322
323
319
314
308
303
292
284
271
255
245
233
220
206
190
172
151
129
108
84
53
22
-13
-50
-86
-121
-157
-192
-228
-263
-286
-306
-324
-339
-349
-353
-357
-355
-347
-335
-314
-291
-266
-243
-220
-194
-168
-140
-113
-84
-59
-35
-5
26
57
87
122
159
195
234
270
307
341
377
412
446
480
508
533
557
577
594
612
621
629
631
630
623
615
607
592
579
561
542
521
500
484
464
451
443
431
425
415
407
393
376
363
345
331
313
295
279
260
238
216
195
175
157
144
122
107
92
82
74
71
67
67
66
63
62
55
46
33
18
-7
-36
-71
-111
-154
-204
-251
-302
-355
-404
-452
-494
-530
-560
-584
-604
-621
-639
-658
-673
-684
-692
-696
-704
-720
-744
-774
-811
-848
-883
-923
-964
-1010
-1061
-1110
-1154
-1185
-1189
-1173
-1145
-1123
-1121
-1133
-1144
-1144
-1135
-1119
-1099
-1082
-1054
-1028
-999
-961
-921
-875
-833
-793
-749
-705
-657
-611
-566
-516
-463
-409
-355
-301
-250
-200
-153
-108
-61
-13
35
81
126
173
219
266
312
361
406
451
495
535
570
602
630
657
679
697
706
712
714
711
706
701
696
694
688
686
682
676
671
666
661
654
648
641
631
622
610
599
590
581
573
564
558
550
539
530
523
512
505
496
485
472
457
431
407
376
339
301
259
210
154
95
34
-27
-87
-145
-209
-274
-335
-398
-462
-518
-572
-621
-664
-700
-735
-768
-799
-826
-841
-849
-853
-854
-846
-833
-815
-784
-757
-729
-697
-662
-621
-577
-532
-484
-432
-376
-322
-268
-214
-159
-103
-52
6
63
119
176
232
293
352
412
470
527
579
626
670
707
731
751
765
773
778
776
772
760
747
731
711
691
673
655
641
625
614
605
595
589
585
583
582
583
584
588
593
601
611
622
634
647
657
667
677
681
685
688
688
685
683
679
674
670
663
655
644
630
615
599
583
563
541
517
488
462
433
402
359
300
246
204
171
126
73
8
-56
-114
-170
-225
-285
-351
-422
-500
-582
-662
-741
-815
-888
-958
-1027
-1094
-1157
-1211
-1257
-1295
-1325
-1353
-1370
-1377
-1380
-1375
-1366
-1353
-1335
-1311
-1283
-1252
-1219
-1187
-1150
-1115
-1072
-1024
-982
-931
-880
-828
-772
-712
-646
-577
-508
-442
-376
-315
-254
-196
-139
-83
-33
16
61
101
137
166
193
216
231
247
259
267
279
290
303
314
323
332
340
357
373
383
395
403
414
428
442
455
466
479
488
496
506
512
516
522
525
525
524
518
505
487
473
457
441
422
398
375
354
337
323
310
297
285
274
262
252
237
214
188
159
131
102
74
44
16
-13
-41
-73
-105
-141
-170
-203
-231
-261
-293
-318
-342
-358
-369
-372
-381
-391
-407
-421
-432
-443
-445
-446
-443
-440
-435
-440
-452
-462
-455
-417
-360
-298
-247
-207
-183
-166
-139
-109
-69
-20
33
91
150
204
258
310
356
398
433
462
483
491
500
499
487
475
454
429
397
360
319
280
231
183
138
93
56
26
-1
-20
-33
-42
-45
-36
-26
-11
16
46
79
111
142
173
205
232
260
287
306
323
333
330
319
298
270
239
208
163
112
54
-12
-70
-130
-183
-226
-261
-280
-291
-291
-283
-272
-250
-219
-176
-130
-77
-19
38
101
163
220
270
303
335
366
409
459
511
543
524
457
379
315
269
221
156
79
1
-62
-109
-142
-168
-194
-221
-248
-270
-291
-313
-336
-361
-385
-402
-420
-431
-441
-451
-454
-455
-456
-457
-458
-458
-454
-448
-450
-449
-449
-456
-453
-456
-462
-461
-469
-474
-482
-485
-486
-486
-486
-487
-485
-491
-495
-500
-507
-515
-522
-532
-540
-550
-562
-568
-579
-590
-600
-614
-628
-642
-661
-677
-696
-711
-725
-733
-742
-743
-738
-730
-721
-710
-698
-679
-662
-645
-622
-607
-591
-576
-559
-542
-524
-505
-482
-458
-435
-413
-395
-371
-344
-315
-288
-260
-234
-208
-184
-161
-143
-127
-114
-97
-85
-73
-60
-53
-47
-37
-33
-26
-24
-30
-35
-42
-50
-58
-69
-84
-97
-116
-131
-146
-166
-185
-204
-220
-238
-250
-260
-269
-269
-268
-264
-258
-250
-240
-225
-214
-200
-188
-179
-164
-151
-134
-117
-97
-81
-59
-42
-20
1
23
42
63
73
83
89
89
85
77
68
53
40
28
19
9
4
1
1
4
5
16
33
50
73
97
124
155
187
217
251
286
320
357
398
440
483
521
559
598
637
673
711
748
780
816
847
869
891
903
911
911
903
887
862
832
798
756
716
664
614
563
514
463
414
364
315
267
218
165
127
92
66
34
-5
-54
-111
-168
-227
-278
-317
-346
-370
-393
-408
-419
-424
-422
-415
-401
-381
-360
-340
-314
-285
-253
-217
-183
-147
-106
-63
-20
23
68
111
148
185
225
257
288
311
319
328
351
362
361
351
341
334
329
321
312
292
263
238
213
190
178
167
151
135
114
91
73
57
45
27
3
-15
-32
-48
-54
-52
-47
-41
-40
-37
-33
-27
-22
-16
-6
16
44
63
79
92
112
132
157
186
209
228
248
272
304
333
367
401
430
447
459
479
500
522
538
543
537
513
473
435
402
372
349
319
293
253
220
149
121
143
18
-46
-199
-283
7
126
215
107
-185
34
568
988
1004
717
378
321
509
649
634
419
158
9
-59
19
101
34
-59
-165
-256
-277
-239
-136
5
182
356
494
599
681
748
806
857
908
936
950
953
953
947
923
885
828
738
627
500
365
230
91
-48
-187
-320
-441
-552
-642
-720
-780
-829
-862
-885
-895
-891
-873
-846
-808
-761
-711
-646
-576
-504
-426
-349
-275
-201
-130
-61
15
87
160
232
302
373
435
491
541
584
608
623
631
639
641
633
619
599
581
558
524
485
434
379
324
270
215
161
104
49
-16
-78
-133
-186
-228
-268
-304
-337
-370
-404
-439
-475
-509
-544
-583
-623
-659
-685
-691
-672
-615
-519
-393
-238
-61
135
352
575
804
1026
1237
1428
1602
1753
1878
1969
2021
2030
1988
1903
1761
1572
1347
1095
823
549
275
11
-228
-440
-614
-750
-843
-906
-939
-946
-926
-895
-860
-824
-792
-761
-735
-715
-703
-691
-675
-662
-639
-605
-567
-541
-510
-472
-432
-394
-373
-368
-384
-417
-448
-479
-509
-549
-611
-702
-787
-844
-880
-917
-967
-1007
-1018
-997
-950
-902
-839
-756
-652
-541
-432
-335
-242
-165
-87
14
123
231
320
398
475
560
651
734
807
870
922
971
1015
1054
1099
1153
1210
1268
1338
1408
1480
1552
1605
1641
1661
1661
1641
1599
1527
1433
1318
1182
1034
874
708
545
382
230
97
-16
-104
-174
-225
-252
-262
-252
-224
-189
-140
-82
-19
46
110
169
222
267
306
324
330
323
305
277
238
190
134
68
1
-69
-143
-219
-290
-356
-415
-471
-518
-560
-598
-627
-646
-660
-658
-649
-632
-607
-580
-545
-509
-468
-419
-366
-311
-255
-201
-143
-86
-30
25
74
128
176
217
249
276
298
314
331
335
334
323
305
286
263
241
215
187
163
134
108
80
51
27
4
-16
-34
-52
-71
-85
-99
-107
-110
-115
-112
-101
-88
-64
-37
-6
29
62
100
137
174
212
243
270
291
313
327
347
360
370
381
390
401
405
407
402
395
388
376
365
351
341
329
319
310
296
285
271
253
236
212
188
163
129
98
69
37
0
-26
-53
-81
-104
-128
-152
-177
-203
-226
-250
-274
-300
-330
-354
-384
-414
-436
-464
-487
-504
-516
-527
-531
-532
-533
-524
-517
-503
-481
-457
-430
-398
-363
-329
-292
-260
-228
-193
-158
-117
-80
-41
1
36
72
105
135
168
192
214
234
252
266
278
285
292
295
301
305
310
311
308
300
289
275
259
238
214
190
170
151
136
118
95
74
54
35
15
-5
-23
-38
-50
-60
-71
-82
-94
-101
-106
-115
-119
-123
-129
-131
-136
-139
-138
-139
-144
-151
-158
-170
-186
-200
-223
-247
-275
-299
-329
-358
-391
-421
-449
-482
-508
-537
-563
-588
-613
-638
-659
-682
-702
-719
-733
-740
-741
-735
-725
-711
-695
-677
-652
-631
-602
-579
-555
-528
-506
-478
-448
-421
-394
-365
-339
-309
-278
-249
-215
-187
-163
-138
-113
-86
-64
-44
-30
-17
-5
6
14
20
24
26
27
28
25
19
17
14
10
9
2
-6
-5
-3
1
6
12
19
25
34
46
63
84
111
135
167
196
228
254
283
309
329
346
355
358
360
354
345
335
322
314
297
282
270
251
237
219
202
183
168
149
121
92
57
18
-20
-58
-99
-134
-172
-202
-224
-243
-257
-273
-283
-287
-290
-287
-282
-277
-277
-275
-272
-269
-263
-256
-246
-232
-216
-196
-171
-142
-108
-75
-40
1
38
76
115
150
186
214
236
258
275
291
299
300
305
308
305
299
294
293
291
292
295
302
312
325
342
357
366
379
395
406
425
440
457
472
485
494
504
513
515
518
521
524
523
527
521
515
508
496
482
465
445
417
388
353
320
287
249
214
179
141
110
75
41
9
-22
-51
-83
-115
-145
-175
-202
-231
-257
-283
-306
-329
-354
-381
-406
-431
-451
-470
-485
-499
-516
-532
-543
-556
-570
-588
-605
-623
-633
-652
-666
-682
-698
-704
-706
-702
-696
-688
-672
-656
-639
-624
-612
-600
-601
-609
-619
-635
-651
-664
-678
-692
-697
-700
-691
-675
-656
-626
-591
-553
-505
-454
-404
-349
-298
-247
-200
-156
-116
-75
-36
3
41
78
117
155
190
227
264
297
335
374
412
447
480
511
539
563
583
601
615
627
631
629
625
618
607
594
576
557
535
510
485
460
432
406
381
356
338
319
298
284
270
257
252
244
238
233
228
222
212
204
194
187
184
176
171
166
158
153
150
153
150
142
136
122
101
79
55
29
4
-27
-55
-85
-117
-146
-176
-201
-228
-250
-268
-286
-301
-319
-334
-345
-354
-367
-378
-387
-394
-399
-402
-406
-412
-416
-418
-425
-426
-437
-447
-453
-464
-466
-465
-466
-459
-448
-440
-427
-416
-401
-384
-372
-360
-355
-356
-359
-368
-381
-399
-421
-439
-460
-480
-503
-521
-535
-544
-541
-533
-520
-503
-479
-450
-419
-381
-344
-308
-275
-242
-213
-185
-158
-140
-122
-109
-93
-78
-64
-54
-40
-24
-9
14
35
57
81
109
138
169
199
228
255
278
298
320
338
357
374
387
403
417
427
437
447
455
465
474
480
487
498
505
511
519
519
518
521
522
522
524
522
523
520
514
508
500
490
477
464
453
439
428
420
419
412
412
417
427
440
454
467
484
510
544
585
623
645
660
668
662
656
661
683
745
836
917
951
938
925
950
1028
1111
1118
1029
860
625
335
-7
-399
-816
-1224
-1600
-1926
-2194
-2407
-2560
-2650
-2682
-2667
-2614
-2537
-2441
-2337
-2225
-2099
-1962
-1803
-1637
-1462
-1275
-1085
-885
-671
-456
-228
0
233
467
696
918
1129
1323
1496
1651
1782
1888
1967
2026
2060
2069
2058
2025
1978
1920
1856
1795
1730
1666
1602
1535
1468
1397
1328
1259
1183
1110
1032
957
888
815
746
673
597
520
431
339
239
129
14
-104
-226
-347
-466
-585
-693
-797
-888
-965
-1030
-1083
-1124
-1152
-1165
-1164
-1158
-1142
-1118
-1088
-1051
-1013
-975
-934
-894
-851
-811
-774
-744
-717
-694
-674
-652
-638
-623
-613
-606
-607
-609
-616
-620
-630
-641
-655
-672
-692
-711
-736
-763
-785
-809
-828
-848
-864
-877
-890
-897
-903
-899
-891
-875
-852
-826
-791
-757
-713
-665
-618
-567
-510
-448
-384
-318
-254
-187
-125
-59
0
50
97
136
171
201
231
254
277
295
311
331
345
360
376
389
400
407
418
424
425
425
419
415
407
399
388
374
360
344
326
317
307
297
289
275
268
259
250
241
231
221
215
205
198
198
197
202
209
215
230
244
260
281
299
322
346
367
393
416
440
461
482
504
519
536
548
556
566
574
585
598
605
616
624
631
642
645
647
650
647
647
647
643
636
632
618
603
587
568
549
527
504
479
447
419
390
359
331
306
276
248
220
194
168
148
124
104
80
55
32
5
-21
-49
-81
-105
-126
-143
-152
-158
-170
-173
-181
-192
-202
-218
-240
-266
-291
-320
-351
-378
-402
-420
-434
-441
-443
-438
-430
-419
-402
-382
-363
-342
-319
-298
-273
-243
-211
-176
-138
-101
-59
-20
22
65
102
140
169
196
220
236
247
249
246
240
224
204
174
138
100
56
15
-27
-69
-111
-152
-193
-229
-265
-299
-332
-366
-401
-434
-465
-495
-520
-544
-573
-595
-618
-634
-643
-647
-651
-653
-647
-639
-630
-614
-591
-571
-549
-532
-516
-498
-483
-470
-455
-446
-439
-432
-427
-423
-419
-415
-414
-414
-407
-398
-385
-372
-360
-358
-360
-358
-362
-363
-369
-381
-396
-412
-431
-459
-489
-526
-564
-607
-651
-695
-733
-767
-792
-808
-815
-811
-797
-774
-741
-706
-669
-626
-577
-526
-471
-416
-359
-299
-240
-180
-124
-71
-19
29
71
108
141
174
197
218
234
250
263
275
286
297
304
310
309
309
306
297
286
273
262
252
239
227
216
201
192
190
191
202
211
224
238
256
275
295
322
347
374
404
432
457
486
507
529
552
570
590
605
618
629
632
636
635
630
618
601
578
557
531
501
470
438
402
369
330
296
261
227
191
154
122
85
50
19
-12
-37
-55
-68
-82
-90
-98
-107
-117
-129
-137
-147
-154
-158
-166
-168
-171
-174
-173
-170
-161
-142
-126
-109
-96
-82
-63
-45
-24
-6
11
29
43
52
61
68
76
79
85
92
96
100
102
102
105
109
114
119
124
131
133
140
146
151
157
162
169
172
179
182
190
196
208
223
236
248
264
280
296
315
329
346
356
367
378
385
392
396
399
400
404
402
402
398
392
386
378
373
360
345
330
310
293
272
250
226
195
167
139
113
86
60
33
15
-2
-25
-49
-73
-95
-115
-129
-143
-152
-160
-173
-185
-195
-198
-198
-194
-184
-172
-152
-130
-110
-86
-62
-37
-18
2
21
32
39
43
47
47
48
46
44
35
24
14
2
-12
-29
-50
-69
-88
-106
-126
-148
-173
-199
-224
-245
-271
-296
-320
-346
-370
-391
-411
-424
-434
-436
-433
-435
-429
-424
-421
-413
-405
-400
-392
-389
-389
-393
-397
-396
-395
-391
-390
-385
-381
-375
-370
-363
-353
-341
-323
-304
-284
-267
-261
-258
-253
-252
-247
-243
-242
-243
-244
-244
-241
-233
-221
-202
-176
-145
-113
-77
-41
-1
37
79
119
161
201
240
277
314
346
376
403
425
443
459
464
465
459
447
430
413
399
382
357
327
296
262
236
214
191
171
154
138
129
122
115
109
107
104
103
107
107
111
116
121
126
131
141
150
161
176
188
201
220
235
250
263
278
291
306
318
329
342
349
356
365
369
369
368
366
362
360
355
346
336
320
301
279
254
228
194
162
123
84
43
-3
-55
-111
-173
-235
-299
-369
-440
-509
-576
-634
-687
-734
-772
-799
-812
-816
-808
-793
-768
-738
-701
-655
-608
-561
-512
-461
-408
-352
-300
-242
-178
-113
-41
26
89
151
209
259
309
346
381
411
436
459
477
485
493
499
502
500
491
480
468
451
433
418
402
391
380
369
367
361
363
361
364
368
375
380
384
395
401
407
419
429
440
453
462
474
476
479
482
478
471
463
454
444
432
414
398
383
361
338
317
290
262
232
201
169
140
109
84
55
21
-6
-34
-63
-93
-117
-145
-166
-187
-211
-228
-255
-284
-314
-352
-399
-445
-504
-566
-630
-699
-770
-842
-913
-981
-1043
-1101
-1162
-1224
-1280
-1334
-1380
-1421
-1453
-1473
-1486
-1493
-1484
-1472
-1450
-1416
-1372
-1317
-1249
-1174
-1092
-1001
-905
-812
-713
-618
-528
-445
-368
-292
-221
-155
-91
-34
26
89
151
215
280
346
411
475
538
593
645
688
731
772
803
831
855
872
887
898
901
903
900
892
885
880
867
847
823
792
768
742
721
699
681
668
663
654
638
623
603
589
579
569
562
556
552
552
550
551
555
560
568
579
584
586
591
596
603
614
623
635
648
661
675
689
694
695
699
693
683
665
639
614
580
543
508
465
419
372
322
271
223
169
114
57
-5
-63
-127
-189
-252
-313
-371
-428
-481
-536
-590
-643
-698
-757
-817
-887
-956
-1030
-1102
-1172
-1246
-1310
-1370
-1424
-1469
-1509
-1546
-1570
-1589
-1597
-1595
-1582
-1552
-1515
-1469
-1409
-1340
-1259
-1177
-1092
-998
-907
-815
-729
-645
-568
-492
-414
-341
-273
-205
-145
-88
-32
17
65
106
145
183
217
253
289
317
343
369
389
414
438
461
484
505
535
565
594
617
637
653
668
685
706
731
757
779
802
823
841
859
879
897
915
929
933
942
949
948
948
942
933
925
913
899
882
861
836
813
785
757
725
692
655
615
577
544
505
465
426
383
345
303
262
227
189
154
119
82
48
16
-15
-41
-62
-83
-105
-131
-158
-184
-215
-246
-283
-321
-365
-417
-470
-526
-585
-645
-703
-765
-820
-870
-917
-955
-982
-1000
-1012
-1012
-1007
-998
-980
-958
-935
-911
-887
-863
-840
-816
-791
-767
-741
-711
-680
-643
-598
-551
-501
-451
-396
-342
-286
-231
-173
-123
-69
-19
22
63
104
136
168
198
226
247
268
286
300
316
333
349
361
373
383
396
418
436
457
476
492
514
534
554
570
585
601
616
639
669
685
671
648
621
592
573
568
576
580
579
583
594
600
610
617
622
628
630
634
637
636
635
630
622
609
596
578
559
540
517
487
451
410
370
327
278
234
186
139
95
47
2
-42
-93
-142
-195
-251
-303
-365
-426
-486
-546
-604
-661
-709
-756
-805
-847
-890
-931
-972
-1010
-1041
-1068
-1093
-1114
-1136
-1158
-1176
-1197
-1216
-1236
-1264
-1294
-1326
-1355
-1379
-1391
-1388
-1368
-1336
-1297
-1256
-1213
-1167
-1115
-1052
-982
-905
-817
-733
-637
-536
-433
-325
-222
-123
-26
62
143
224
296
363
431
491
554
617
681
743
805
866
927
983
1033
1085
1129
1171
1205
1234
1259
1274
1282
1284
1283
1275
1263
1253
1240
1226
1213
1198
1183
1166
1151
1136
1117
1095
1070
1048
1020
989
954
915
872
823
778
727
678
630
582
535
491
449
403
358
314
272
235
195
151
109
68
22
-28
-79
-125
-172
-220
-265
-313
-357
-410
-459
-511
-562
-610
-655
-703
-748
-788
-827
-859
-891
-919
-942
-968
-992
-1016
-1033
-1047
-1061
-1075
-1091
-1105
-1120
-1133
-1144
-1160
-1177
-1190
-1201
-1216
-1229
-1243
-1260
-1277
-1290
-1293
-1298
-1299
-1290
-1276
-1249
-1212
-1170
-1118
-1058
-993
-917
-835
-746
-656
-560
-466
-371
-280
-195
-113
-40
29
94
151
200
249
288
332
376
417
456
493
529
564
598
630
668
705
744
782
815
849
879
901
922
940
957
974
982
987
991
989
983
971
961
952
942
928
911
890
863
835
805
766
727
682
628
579
524
462
401
338
278
221
156
95
44
-9
-57
-99
-143
-186
-232
-276
-315
-358
-398
-429
-455
-471
-480
-480
-472
-457
-445
-430
-414
-391
-360
-336
-317
-303
-289
-272
-251
-229
-207
-188
-170
-149
-127
-103
-78
-51
-28
2
36
69
105
143
182
221
255
278
302
324
349
369
392
416
437
453
473
491
511
535
564
591
627
657
683
707
722
744
766
789
821
886
960
938
833
749
716
700
692
675
653
634
626
623
618
609
609
604
587
598
606
563
546
596
588
469
350
308
342
404
463
509
555
613
672
717
734
736
740
755
772
775
768
759
747
738
724
704
680
650
618
577
531
476
418
351
272
196
114
30
-48
-130
-205
-287
-362
-437
-510
-583
-653
-723
-799
-872
-949
-1025
-1101
-1179
-1257
-1332
-1405
-1477
-1547
-1618
-1684
-1745
-1804
-1856
-1897
-1933
-1962
-1981
-1992
-1989
-1978
-1959
-1926
-1884
-1836
-1776
-1714
-1644
-1573
-1497
-1423
-1349
-1271
-1196
-1120
-1042
-966
-892
-819
-752
-685
-618
-555
-487
-416
-346
-277
-209
-141
-73
-6
61
124
182
235
287
339
389
437
482
531
579
621
665
697
729
757
788
813
836
857
870
876
883
894
899
899
898
894
896
893
886
879
871
862
850
836
820
796
774
750
723
695
671
649
619
591
566
538
512
488
463
438
417
389
357
329
296
264
232
194
157
111
65
14
-43
-100
-161
-220
-284
-349
-412
-481
-552
-625
-700
-779
-861
-946
-1034
-1129
-1225
-1320
-1405
-1489
-1561
-1619
-1671
-1702
-1724
-1736
-1738
-1730
-1713
-1684
-1649
-1605
-1551
-1494
-1424
-1344
-1256
-1163
-1066
-966
-861
-756
-650
-540
-430
-320
-222
-133
-46
32
113
193
273
353
426
499
563
625
681
731
775
821
872
915
944
945
929
908
881
856
827
792
762
734
706
678
650
624
598
574
554
534
515
490
464
437
411
382
350
314
275
236
193
142
79
25
-16
-40
-40
-18
36
120
233
377
541
722
908
1104
1301
1482
1651
1807
1946
2053
2124
2164
2181
2181
2150
2084
1977
1833
1662
1470
1267
1063
867
678
494
322
170
50
-42
-112
-155
-178
-171
-144
-104
-62
-27
-4
5
-7
-32
-72
-126
-195
-280
-389
-511
-619
-714
-798
-881
-980
-1082
-1167
-1232
-1283
-1302
-1289
-1259
-1242
-1250
-1290
-1362
-1452
-1533
-1590
-1640
-1699
-1764
-1801
-1798
-1750
-1673
-1571
-1437
-1265
-1079
-897
-725
-556
-397
-249
-111
16
129
223
316
404
491
577
657
738
818
904
998
1101
1208
1316
1426
1536
1637
1727
1805
1868
1920
1949
1967
1964
1946
1913
1861
1792
1704
1600
1481
1354
1215
1076
932
794
659
535
429
335
257
204
171
152
150
158
175
196
215
224
226
217
195
160
105
37
-51
-162
-288
-425
-573
-719
-868
-1010
-1137
-1256
-1362
-1455
-1535
-1603
-1656
-1696
-1718
-1721
-1712
-1687
-1646
-1594
-1531
-1458
-1381
-1304
-1225
-1142
-1053
-957
-862
-768
-673
-576
-474
-375
-277
-186
-91
6
105
201
291
374
451
525
592
641
657
661
686
759
870
962
996
972
921
882
862
842
807
756
692
619
550
485
422
363
299
233
169
110
51
-5
-62
-113
-156
-188
-214
-233
-246
-267
-293
-270
-218
-257
-321
-292
-196
-108
-54
-17
41
116
181
238
284
328
372
417
458
495
518
539
556
570
576
580
580
576
573
570
564
555
543
526
508
491
477
462
443
427
407
384
356
327
298
270
235
203
175
137
102
67
34
0
-30
-60
-93
-120
-152
-178
-202
-225
-242
-257
-261
-259
-255
-248
-239
-226
-201
-178
-156
-129
-104
-78
-51
-28
-9
9
24
35
43
46
45
46
43
35
22
4
-12
-34
-51
-73
-97
-120
-153
-184
-221
-260
-300
-339
-379
-421
-458
-494
-523
-549
-575
-595
-611
-625
-637
-653
-669
-682
-694
-700
-706
-712
-710
-709
-700
-686
-666
-646
-628
-611
-594
-577
-556
-535
-516
-498
-481
-466
-446
-430
-417
-400
-386
-362
-339
-312
-282
-254
-221
-184
-148
-112
-77
-39
-9
22
53
80
106
134
159
185
213
241
263
285
307
327
346
368
388
407
429
442
459
475
492
509
520
529
533
538
540
542
540
534
527
517
505
496
481
464
455
444
437
429
418
410
405
402
395
388
381
377
373
370
371
371
373
379
379
378
377
371
364
358
343
327
306
282
250
214
175
131
78
20
-36
-97
-156
-217
-276
-329
-379
-423
-462
-497
-527
-556
-582
-607
-624
-644
-668
-685
-705
-724
-737
-748
-758
-762
-760
-749
-730
-704
-674
-638
-600
-558
-507
-451
-394
-336
-271
-204
-141
-75
-11
45
110
173
234
295
347
394
435
474
517
551
576
600
615
627
637
639
639
632
619
600
576
552
529
504
480
455
427
402
375
350
318
290
261
232
207
182
157
140
124
111
98
84
75
67
60
59
57
58
60
66
78
86
97
103
111
122
134
141
149
150
155
155
155
155
152
148
138
125
103
79
58
33
6
-21
-50
-77
-105
-131
-155
-176
-194
-209
-227
-253
-278
-311
-346
-383
-426
-471
-523
-572
-622
-678
-737
-798
-857
-917
-972
-1026
-1074
-1115
-1146
-1168
-1185
-1188
-1178
-1157
-1129
-1095
-1056
-1009
-957
-914
-873
-831
-796
-752
-709
-670
-624
-579
-534
-480
-428
-373
-314
-256
-192
-124
-53
18
88
154
216
274
328
376
422
471
513
549
579
602
620
634
647
655
661
668
669
670
668
665
664
657
651
645
632
618
602
582
561
538
511
483
455
423
394
361
329
303
276
256
234
214
200
185
176
167
158
150
142
140
137
137
137
133
137
140
143
145
144
145
149
151
149
142
132
124
118
112
110
106
102
98
96
94
93
94
86
78
67
55
44
30
10
-14
-49
-82
-119
-164
-207
-254
-301
-346
-386
-423
-454
-481
-500
-512
-519
-523
-526
-526
-529
-534
-538
-535
-529
-514
-498
-475
-449
-418
-385
-354
-323
-288
-253
-217
-180
-144
-117
-90
-62
-35
-12
10
33
49
68
81
93
104
112
122
132
142
145
147
144
141
138
130
123
113
96
80
63
45
31
20
9
1
-9
-19
-26
-30
-33
-36
-33
-26
-22
-16
-12
-2
5
14
21
22
29
31
34
38
38
37
36
36
30
27
22
16
10
2
-7
-16
-30
-46
-60
-78
-95
-115
-136
-158
-185
-210
-238
-262
-288
-313
-339
-358
-374
-381
-380
-375
-366
-349
-329
-307
-279
-249
-222
-191
-152
-105
-51
14
86
162
234
298
357
415
480
554
654
768
853
893
884
865
880
949
1016
1001
877
674
435
169
-140
-526
-969
-1409
-1817
-2168
-2461
-2685
-2838
-2929
-2955
-2919
-2832
-2701
-2544
-2370
-2185
-1994
-1799
-1599
-1399
-1199
-998
-796
-589
-382
-169
48
261
465
658
839
1001
1144
1259
1353
1440
1519
1584
1624
1650
1674
1694
1712
1721
1716
1699
1674
1642
1606
1561
1507
1449
1386
1319
1253
1179
1108
1039
969
905
845
787
736
685
638
587
535
482
425
368
304
234
162
84
6
-71
-145
-209
-265
-313
-354
-388
-420
-448
-471
-484
-492
-493
-493
-487
-470
-449
-422
-393
-361
-328
-294
-266
-240
-215
-196
-172
-147
-119
-86
-64
-41
-16
9
48
92
132
162
190
210
229
245
265
282
294
297
286
267
236
194
137
77
10
-65
-146
-227
-307
-385
-456
-513
-560
-592
-611
-620
-616
-602
-577
-547
-506
-454
-402
-347
-292
-235
-177
-127
-76
-29
9
53
92
131
165
196
221
241
258
273
295
315
329
347
357
362
367
370
371
367
357
346
340
330
321
315
309
298
288
283
278
274
275
269
265
260
251
242
234
224
215
208
201
197
199
201
206
220
232
247
259
269
278
288
295
303
306
302
294
286
277
265
250
238
227
221
214
208
205
199
197
186
173
160
143
133
124
117
109
97
88
85
80
78
73
67
56
41
24
5
-15
-32
-44
-58
-71
-84
-93
-101
-104
-109
-111
-118
-126
-133
-147
-159
-174
-192
-209
-228
-243
-260
-274
-290
-311
-328
-343
-362
-374
-385
-396
-396
-401
-402
-406
-412
-414
-421
-428
-432
-438
-440
-443
-449
-449
-444
-438
-426
-410
-390
-371
-349
-326
-303
-279
-255
-228
-197
-176
-151
-128
-104
-82
-60
-40
-19
1
22
42
54
71
84
95
102
110
122
135
141
145
150
154
156
160
161
161
168
168
172
174
168
166
157
152
147
137
128
120
104
90
72
47
20
-6
-36
-63
-85
-113
-135
-155
-175
-192
-207
-222
-233
-243
-255
-267
-279
-294
-305
-321
-338
-351
-366
-377
-383
-389
-392
-390
-388
-381
-381
-375
-366
-356
-345
-333
-327
-319
-312
-309
-302
-293
-288
-275
-264
-253
-241
-230
-220
-207
-195
-177
-161
-145
-130
-118
-106
-96
-87
-82
-79
-77
-75
-75
-73
-72
-68
-65
-61
-60
-57
-50
-43
-41
-37
-29
-18
-4
6
16
25
37
53
77
100
131
163
195
227
263
296
329
359
388
411
430
450
464
481
493
504
506
507
502
490
476
456
430
397
363
332
298
269
237
205
180
152
130
112
99
92
89
89
92
97
98
102
103
103
102
96
85
73
67
58
53
49
43
44
47
53
58
68
80
96
115
137
159
177
203
225
248
272
294
314
332
350
364
377
385
390
391
392
392
386
381
369
355
343
331
323
309
302
290
281
275
273
276
278
280
278
276
276
275
268
259
253
245
232
216
194
179
161
142
128
113
98
89
77
66
58
49
44
42
49
55
60
69
79
92
102
113
128
139
153
163
168
172
173
175
175
174
166
161
148
134
127
114
106
96
88
81
78
76
72
72
73
78
80
80
78
75
71
65
60
52
43
31
22
8
-7
-23
-39
-52
-65
-79
-88
-93
-99
-102
-106
-110
-114
-116
-119
-127
-131
-142
-152
-160
-170
-176
-188
-193
-199
-207
-214
-227
-243
-261
-282
-305
-326
-353
-383
-417
-453
-494
-536
-574
-616
-650
-688
-727
-763
-796
-825
-854
-876
-890
-893
-896
-900
-898
-883
-861
-846
-832
-811
-788
-770
-761
-740
-711
-686
-662
-633
-599
-561
-530
-495
-454
-417
-379
-340
-297
-256
-220
-187
-155
-119
-94
-70
-48
-37
-27
-13
-14
-10
0
11
27
38
53
78
100
111
126
148
173
199
213
238
266
290
308
320
340
353
362
371
372
371
364
356
350
340
326
318
303
293
284
278
274
269
271
272
273
275
276
279
276
266
256
245
228
214
191
171
144
113
69
-1
-74
-110
-91
-32
23
35
7
-42
-82
-101
-116
-137
-168
-208
-248
-276
-300
-310
-314
-315
-304
-292
-280
-267
-258
-254
-254
-253
-256
-263
-276
-288
-307
-324
-338
-348
-354
-352
-353
-350
-341
-335
-318
-304
-283
-253
-220
-188
-150
-112
-74
-32
8
52
92
134
170
208
244
277
303
320
342
365
384
400
417
432
451
467
483
500
509
517
522
530
536
539
536
526
515
497
477
456
432
407
381
354
331
303
278
252
226
194
168
142
111
90
69
52
36
24
15
10
7
12
15
22
32
39
51
60
69
84
104
118
130
146
156
168
180
188
196
199
202
200
199
199
193
192
191
193
195
199
205
215
226
234
241
244
242
234
225
214
200
182
159
133
114
96
77
64
54
47
49
50
49
49
49
46
43
33
20
4
-15
-32
-58
-84
-111
-140
-167
-191
-213
-227
-241
-249
-257
-260
-261
-258
-252
-246
-242
-238
-229
-228
-224
-223
-225
-225
-229
-234
-236
-240
-245
-245
-238
-230
-224
-217
-208
-200
-194
-185
-185
-187
-185
-184
-184
-186
-187
-188
-186
-184
-181
-179
-180
-176
-169
-163
-161
-165
-166
-170
-173
-176
-178
-175
-178
-174
-175
-183
-182
-183
-181
-177
-185
-188
-193
-206
-228
-250
-261
-275
-280
-285
-289
-279
-266
-248
-223
-199
-169
-143
-119
-96
-77
-51
-32
-23
-17
-11
-13
-25
-44
-57
-71
-85
-100
-118
-132
-147
-169
-187
-205
-222
-231
-239
-247
-254
-257
-262
-269
-271
-278
-281
-281
-283
-286
-290
-288
-291
-282
-268
-253
-237
-221
-197
-169
-136
-102
-65
-32
7
46
82
120
158
193
222
248
272
290
307
326
345
361
375
382
394
402
411
418
424
430
438
445
452
459
461
469
474
479
481
477
473
457
441
422
401
377
356
332
305
282
255
227
197
166
136
106
74
45
22
-2
-20
-33
-45
-52
-61
-72
-80
-86
-92
-97
-105
-119
-139
-158
-176
-198
-216
-231
-244
-256
-268
-283
-301
-324
-349
-372
-398
-419
-444
-471
-498
-527
-557
-579
-601
-619
-632
-641
-644
-642
-640
-633
-618
-596
-565
-528
-488
-444
-397
-349
-299
-246
-191
-140
-88
-32
20
74
124
173
225
269
315
356
394
429
466
497
524
553
573
583
590
590
588
581
564
545
524
497
466
438
408
388
367
349
337
325
312
305
293
284
278
273
268
266
260
256
248
244
238
232
224
214
205
195
184
176
167
165
157
154
154
154
154
154
157
157
159
161
166
168
168
168
166
163
156
149
139
124
103
74
46
20
-11
-35
-61
-84
-103
-122
-134
-144
-158
-164
-176
-189
-200
-218
-238
-262
-287
-312
-337
-361
-387
-414
-436
-451
-464
-474
-481
-496
-512
-528
-547
-567
-585
-602
-620
-634
-643
-647
-642
-630
-610
-584
-550
-513
-472
-429
-379
-330
-285
-232
-187
-146
-107
-79
-56
-37
-26
-18
-5
4
14
24
36
52
76
94
113
129
150
181
208
240
265
287
311
340
361
386
406
424
442
458
469
482
494
502
509
519
523
531
532
533
533
533
529
526
519
513
511
507
506
502
497
490
481
474
464
453
438
421
404
383
365
346
324
301
274
247
216
188
158
123
89
51
15
-18
-57
-89
-121
-155
-190
-220
-248
-276
-301
-327
-353
-374
-398
-420
-437
-457
-474
-488
-500
-512
-523
-529
-535
-533
-531
-527
-520
-509
-496
-482
-469
-453
-436
-415
-395
-370
-344
-320
-298
-277
-262
-246
-235
-227
-220
-212
-209
-202
-191
-180
-161
-145
-124
-99
-75
-47
-20
4
30
62
88
112
132
147
159
170
178
182
186
185
183
176
162
147
132
116
105
91
76
68
59
55
50
46
42
40
37
35
36
38
48
63
75
94
106
122
133
145
159
172
179
192
201
206
211
212
219
226
232
238
240
246
248
257
262
275
287
300
318
336
353
369
377
389
399
408
422
430
437
445
448
450
456
457
462
461
459
460
460
462
461
460
460
463
460
457
449
441
432
420
407
391
374
352
327
302
276
251
226
206
183
156
130
101
76
50
22
-4
-36
-71
-106
-147
-192
-234
-292
-351
-411
-476
-540
-606
-666
-724
-775
-819
-854
-878
-896
-910
-918
-923
-927
-923
-917
-912
-908
-907
-904
-904
-903
-900
-898
-891
-879
-863
-838
-808
-775
-732
-686
-634
-581
-525
-467
-409
-352
-298
-246
-199
-156
-115
-78
-46
-12
12
30
44
54
62
67
70
69
62
57
46
41
36
27
18
4
-5
-16
-23
-24
-23
-20
-19
-11
-5
7
18
32
50
67
90
107
131
152
172
197
215
236
255
270
284
295
296
294
290
281
273
267
261
259
256
252
255
255
261
269
278
288
301
313
325
334
340
352
368
381
394
409
418
429
438
441
448
447
441
434
422
408
393
375
363
353
336
324
304
282
264
236
210
180
147
110
67
26
-19
-55
-86
-113
-130
-145
-158
-169
-175
-177
-175
-167
-160
-150
-141
-131
-116
-100
-80
-56
-24
5
35
66
91
118
141
163
186
208
225
242
251
259
266
266
267
264
256
247
242
232
219
199
176
152
124
95
65
33
3
-24
-49
-71
-90
-110
-125
-139
-160
-175
-191
-207
-222
-235
-252
-271
-290
-310
-332
-348
-368
-383
-395
-407
-422
-433
-446
-455
-462
-473
-483
-497
-508
-521
-534
-549
-568
-586
-603
-616
-627
-635
-642
-650
-653
-656
-653
-643
-637
-621
-602
-580
-556
-524
-493
-463
-432
-398
-369
-341
-316
-294
-271
-250
-228
-207
-184
-153
-116
-76
-29
21
78
137
199
261
324
385
441
491
536
576
613
640
663
676
676
667
653
634
615
591
566
543
515
490
464
439
418
397
377
361
339
325
310
290
279
268
260
259
255
246
240
233
222
217
204
190
170
147
114
75
27
-32
-92
-152
-195
-222
-212
-166
-86
18
149
304
477
666
860
1052
1235
1407
1568
1705
1821
1908
1968
1992
1975
1921
1816
1674
1491
1285
1062
830
598
367
150
-48
-224
-377
-500
-603
-688
-753
-806
-850
-891
-929
-972
-1018
-1061
-1107
-1148
-1195
-1240
-1266
-1273
-1265
-1259
-1261
-1271
-1289
-1317
-1354
-1399
-1455
-1502
-1550
-1599
-1653
-1704
-1741
-1759
-1757
-1758
-1759
-1758
-1733
-1690
-1641
-1573
-1483
-1377
-1257
-1136
-1004
-857
-702
-546
-395
-238
-81
68
216
350
472
591
703
822
928
1009
1073
1144
1224
1296
1349
1387
1420
1465
1515
1561
1595
1612
1621
1619
1609
1593
1558
1506
1436
1351
1252
1143
1022
887
743
589
434
285
138
-4
-143
-266
-372
-459
-526
-575
-604
-610
-600
-570
-525
-469
-400
-322
-241
-158
-74
0
65
126
170
204
225
234
230
214
189
148
98
37
-30
-106
-186
-261
-343
-421
-501
-582
-656
-723
-786
-836
-874
-900
-911
-905
-887
-852
-807
-748
-679
-598
-502
-402
-293
-176
-63
56
172
284
388
487
575
658
734
800
856
903
940
975
1003
1024
1038
1047
1051
1050
1043
1028
1013
990
970
943
913
891
863
836
811
779
757
736
721
705
691
678
666
657
653
652
655
654
656
663
667
679
683
683
671
653
632
611
586
554
517
472
424
380
339
298
257
212
164
125
87
59
27
0
-20
-41
-51
-59
-71
-81
-92
-102
-119
-141
-163
-192
-226
-262
-303
-339
-380
-422
-470
-524
-573
-620
-667
-710
-756
-796
-833
-866
-896
-918
-938
-957
-966
-968
-962
-957
-948
-939
-926
-915
-899
-877
-856
-830
-807
-784
-760
-737
-706
-679
-651
-619
-587
-548
-504
-458
-414
-376
-336
-298
-262
-231
-204
-178
-155
-134
-116
-103
-96
-90
-87
-82
-80
-79
-79
-75
-72
-65
-54
-36
-19
4
29
56
83
114
143
172
197
221
242
262
283
298
312
325
332
339
342
351
360
369
377
385
393
402
409
415
418
422
418
415
406
395
382
363
342
326
305
290
275
253
231
210
190
166
142
118
99
81
64
55
46
43
37
33
32
32
34
36
37
35
38
44
45
50
52
54
57
64
74
81
82
83
83
76
69
60
53
46
38
34
31
23
13
4
-1
1
12
26
43
63
85
115
144
166
190
224
259
289
308
323
334
341
346
343
342
342
337
334
328
320
319
321
320
320
318
318
312
306
297
291
282
269
262
256
248
238
231
223
213
206
195
185
175
166
148
133
109
87
58
26
-10
-50
-88
-129
-166
-197
-227
-251
-271
-284
-296
-303
-309
-315
-316
-322
-332
-345
-362
-382
-402
-427
-453
-481
-506
-533
-554
-572
-587
-600
-605
-609
-612
-605
-596
-579
-555
-530
-497
-462
-425
-381
-342
-297
-258
-218
-181
-145
-110
-75
-36
-1
35
70
103
131
159
185
214
241
261
282
295
313
330
347
361
371
375
378
382
382
382
375
362
346
332
315
290
263
234
200
164
124
81
39
-1
-43
-77
-108
-139
-166
-193
-215
-238
-262
-283
-301
-314
-330
-337
-346
-355
-360
-368
-371
-374
-376
-374
-377
-382
-385
-388
-394
-399
-400
-400
-396
-395
-395
-391
-385
-381
-372
-364
-362
-356
-353
-350
-348
-353
-356
-361
-364
-367
-365
-366
-367
-368
-366
-360
-352
-342
-335
-325
-312
-295
-275
-248
-222
-197
-163
-133
-101
-70
-46
-21
1
21
47
58
71
86
92
101
107
111
109
103
100
96
90
84
80
76
74
72
69
68
68
66
63
65
61
53
49
43
39
32
24
18
12
0
-11
-17
-23
-26
-27
-27
-25
-16
-3
13
36
56
78
101
127
153
173
199
219
231
241
246
248
250
254
250
243
237
231
229
226
222
219
216
216
216
212
209
204
194
189
179
170
161
147
137
130
122
116
111
107
104
106
111
116
129
144
159
173
182
189
193
197
197
200
200
198
196
196
193
187
184
182
184
184
183
176
171
164
159
149
140
132
124
119
116
111
107
106
102
100
101
98
92
83
74
60
50
37
27
21
21
22
32
46
63
83
106
131
155
180
203
224
245
259
274
290
303
316
323
333
335
337
341
337
334
325
314
302
286
271
252
231
205
175
142
103
64
18
-25
-70
-118
-162
-207
-252
-291
-328
-357
-386
-412
-436
-455
-466
-473
-473
-478
-474
-471
-463
-455
-442
-427
-414
-401
-387
-371
-353
-332
-306
-271
-243
-207
-174
-140
-103
-70
-32
6
42
74
107
143
177
212
253
289
326
370
413
459
506
548
590
646
710
781
851
913
961
1001
1031
1062
1098
1149
1238
1352
1445
1481
1456
1417
1413
1478
1574
1606
1514
1313
1049
734
376
-23
-455
-891
-1303
-1663
-1959
-2191
-2361
-2480
-2540
-2553
-2523
-2464
-2393
-2314
-2236
-2145
-2040
-1918
-1783
-1643
-1498
-1349
-1199
-1039
-869
-692
-511
-329
-150
28
199
363
518
658
783
887
971
1039
1079
1096
1092
1077
1049
1011
964
917
864
811
761
713
670
639
610
583
558
536
510
494
478
465
461
461
462
465
463
454
433
403
366
310
245
167
82
-12
-109
-207
-304
-401
-491
-572
-648
-713
-770
-810
-840
-858
-865
-863
-848
-836
-820
-802
-783
-759
-737
-719
-699
-676
-652
-624
-593
-560
-522
-482
-443
-401
-365
-323
-279
-242
-205
-170
-139
-109
-78
-52
-26
-4
14
33
51
69
90
109
130
155
179
200
219
235
249
267
282
303
316
329
343
351
358
368
378
388
399
408
419
427
437
447
461
475
488
502
509
520
528
533
538
541
544
545
540
531
517
503
482
462
439
414
389
356
322
287
248
213
177
142
109
76
47
21
-2
-26
-46
-62
-75
-82
-92
-101
-111
-115
-120
-123
-120
-121
-122
-118
-111
-102
-87
-65
-41
-13
9
36
62
81
102
114
127
138
150
159
165
170
171
174
175
176
178
178
173
167
159
152
144
137
128
119
103
89
76
56
33
5
-28
-63
-102
-147
-194
-241
-290
-336
-384
-432
-481
-531
-577
-624
-664
-705
-740
-772
-802
-823
-842
-849
-847
-841
-824
-809
-784
-754
-723
-692
-663
-636
-609
-583
-557
-536
-520
-505
-487
-467
-439
-409
-381
-354
-327
-303
-277
-249
-225
-205
-187
-173
-167
-161
-160
-159
-161
-166
-168
-172
-172
-169
-166
-164
-160
-154
-147
-138
-126
-114
-105
-96
-86
-76
-67
-57
-47
-41
-33
-29
-19
-10
-2
7
13
16
21
24
26
31
35
39
45
48
50
52
53
52
48
39
27
14
1
-14
-35
-58
-78
-98
-121
-142
-158
-169
-180
-187
-196
-204
-210
-216
-216
-222
-231
-239
-253
-266
-282
-299
-312
-330
-345
-358
-369
-376
-382
-387
-387
-389
-392
-392
-396
-399
-402
-405
-400
-394
-384
-371
-361
-347
-334
-325
-316
-306
-297
-288
-277
-267
-256
-249
-240
-233
-221
-208
-194
-180
-167
-149
-128
-104
-81
-63
-43
-22
-1
18
43
61
84
106
131
154
176
206
232
258
282
304
323
339
353
362
369
374
376
374
369
363
348
333
316
294
274
255
229
209
187
165
149
128
116
109
102
100
105
111
118
126
134
147
157
163
173
177
179
181
179
175
170
161
154
145
135
121
109
99
89
79
67
61
58
55
55
54
55
50
42
29
9
-18
-47
-80
-118
-155
-192
-234
-268
-298
-325
-341
-350
-354
-355
-351
-342
-328
-309
-291
-271
-248
-217
-188
-157
-128
-104
-70
-35
1
39
76
115
157
200
242
287
326
365
407
439
470
496
515
536
559
575
595
610
624
638
646
657
667
672
677
673
672
664
657
647
632
613
586
560
534
506
475
444
419
398
377
359
341
326
317
307
299
294
292
292
295
302
310
317
319
316
314
307
301
294
288
279
266
257
248
241
232
226
218
208
204
191
185
180
174
169
160
152
143
132
116
101
84
60
34
-1
-37
-75
-113
-147
-182
-215
-246
-273
-296
-318
-336
-355
-379
-394
-414
-426
-431
-431
-425
-419
-405
-387
-368
-347
-321
-293
-267
-241
-217
-198
-178
-162
-147
-135
-120
-105
-86
-66
-44
-22
1
25
50
76
105
127
145
163
179
196
207
211
211
205
193
177
162
139
116
87
59
29
-4
-38
-68
-98
-124
-148
-173
-189
-204
-213
-213
-210
-213
-205
-196
-187
-169
-153
-134
-108
-86
-67
-46
-27
-10
7
21
33
42
52
60
70
84
95
106
122
136
150
170
186
205
221
242
255
269
278
281
277
266
248
221
190
152
113
67
16
-31
-77
-122
-160
-190
-211
-224
-231
-231
-222
-213
-203
-194
-184
-175
-162
-154
-145
-138
-137
-133
-123
-115
-100
-88
-74
-60
-42
-19
9
36
68
98
129
157
180
200
219
236
251
260
263
259
248
233
216
199
186
165
147
130
116
103
94
91
92
102
118
139
165
192
217
240
264
284
304
325
332
335
335
331
332
332
330
328
320
313
304
295
286
277
268
262
256
249
243
233
225
216
201
184
162
141
121
98
75
51
22
-7
-35
-65
-91
-121
-155
-188
-222
-255
-289
-321
-358
-391
-421
-455
-486
-521
-549
-576
-607
-631
-660
-688
-713
-737
-760
-780
-794
-804
-811
-814
-814
-808
-789
-770
-747
-716
-681
-644
-606
-565
-527
-493
-459
-428
-399
-378
-357
-333
-319
-299
-281
-270
-261
-257
-260
-265
-266
-268
-274
-280
-289
-299
-306
-308
-311
-309
-308
-306
-300
-289
-273
-257
-236
-210
-180
-146
-111
-84
-56
-28
-2
25
44
56
66
71
77
75
73
75
81
91
98
112
121
132
141
150
164
177
193
212
226
239
249
256
258
260
256
253
250
247
243
234
221
204
191
178
158
144
127
114
110
109
110
113
118
127
140
152
164
178
187
192
198
201
199
186
173
156
140
125
106
95
88
89
99
115
134
160
186
219
249
280
308
334
357
374
390
399
388
372
375
387
392
383
369
356
347
340
329
316
305
299
297
298
309
319
305
277
253
234
253
294
319
326
336
372
415
435
464
500
534
581
626
626
581
507
430
357
295
242
176
104
49
21
2
-16
-28
-52
-72
-67
-65
-76
-75
-63
-40
-22
-12
-9
-10
-16
-16
-2
14
26
26
7
-16
-30
-32
-17
3
20
36
51
65
75
78
76
73
68
53
30
13
-8
-33
-66
-99
-126
-150
-169
-186
-199
-211
-219
-219
-219
-218
-215
-214
-213
-214
-216
-217
-217
-213
-205
-195
-178
-151
-116
-81
-47
-15
17
46
75
100
119
124
121
114
104
94
78
60
36
7
-20
-47
-71
-92
-113
-133
-147
-157
-164
-167
-164
-158
-147
-130
-114
-102
-89
-76
-66
-55
-49
-40
-36
-32
-27
-23
-23
-25
-28
-32
-37
-44
-54
-62
-70
-84
-101
-121
-144
-172
-202
-236
-271
-303
-336
-369
-398
-422
-441
-450
-455
-454
-450
-445
-440
-433
-423
-412
-400
-385
-374
-363
-362
-362
-362
-361
-366
-374
-386
-402
-421
-443
-467
-490
-514
-533
-546
-557
-562
-567
-568
-565
-556
-545
-528
-507
-486
-462
-437
-406
-378
-347
-314
-281
-251
-224
-197
-172
-138
-110
-83
-58
-34
-15
6
20
33
45
56
66
77
80
83
88
95
106
107
106
90
91
72
-35
-91
-65
-78
-139
-201
-219
-186
-153
-140
-129
-97
-47
23
74
112
158
202
254
304
343
375
407
446
489
520
545
563
571
576
572
566
551
527
505
483
456
426
392
355
323
297
276
230
175
210
266
206
92
18
-10
-2
7
24
66
100
110
121
151
189
228
264
297
332
366
388
390
384
371
356
339
318
295
275
252
232
212
193
176
160
149
140
132
126
123
123
125
123
126
124
124
125
124
124
122
117
115
114
117
119
125
132
136
144
146
144
144
145
142
140
137
136
140
142
150
155
157
160
162
164
168
173
180
193
202
208
215
219
223
227
232
236
241
243
245
250
256
261
263
269
274
276
276
278
278
278
277
276
278
275
269
260
248
242
238
230
223
213
194
177
160
148
136
123
115
112
109
105
101
93
87
83
78
76
69
62
53
44
30
22
10
-2
-12
-27
-42
-61
-81
-101
-126
-152
-177
-204
-235
-265
-301
-342
-385
-437
-493
-551
-615
-678
-732
-780
-820
-851
-875
-883
-876
-855
-821
-785
-745
-698
-645
-591
-534
-481
-432
-381
-331
-283
-235
-193
-155
-123
-94
-69
-45
-19
0
16
40
58
74
83
83
81
82
76
72
63
43
22
-6
-39
-71
-114
-158
-203
-251
-297
-333
-366
-399
-427
-453
-470
-480
-487
-489
-485
-474
-461
-446
-430
-417
-403
-386
-363
-337
-308
-278
-253
-225
-197
-169
-142
-118
-89
-57
-28
2
30
47
65
78
91
100
107
111
109
108
108
109
110
108
108
111
118
129
138
150
160
169
177
186
191
195
196
195
205
208
207
210
206
210
218
225
233
244
254
258
263
265
263
258
248
237
223
212
204
194
184
168
147
131
118
102
