0,0
2442,3482
2611,3621
2744,3856
2882,4090
3102,4436
3231,4634
3393,4844
3583,5126
3741,5411
4004,5731
4151,5974
4313,6263
4536,6566
4766,6943
5011,7197
5266,7606
5489,8025
5776,8480
6198,9049
6576,9555
6984,10180
7378,10835
7797,11434
8248,12049
8565,12520
8947,13081
9301,13584
9600,14137
10014,14677
10444,15303
11001,16174
11609,17072
12276,18008
12803,18816
13227,19421
13679,20054
14003,20566
14352,20960
14600,21461
14917,21943
15318,22493
15677,23048
16139,23701
16742,24620
17404,25669
18231,26859
19135,28172
20115,29653
21234,31196
22336,32872
23468,34516
24556,36193
25733,37818
26957,39497
28274,41511
29905,43877
32093,47057
34682,50681
37842,55073
41599,60195
45471,65467
49570,70688
53532,75886
57285,80511
60768,84357
63945,87707
66287,90112
68065,90943
68793,89780
69443,88996
77468,98443
84511,106389
89054,111437
92011,114855
94469,117416
96410,119491
97803,120704
98443,121334
99096,121748
99725,122134
100313,122444
100856,122671
101195,122861
101442,122944
101681,123079
101856,123137
102000,123131
102141,123223
102273,123228
102551,123309
102784,123450
103126,123498
103625,123719
104128,123901
104700,124123
105216,124329
105666,124424
106008,124540
106296,124560
106469,124634
106656,124599
106761,124559
106916,124515
107094,124534
107174,124536
107312,124546
107457,124607
107589,124581
107712,124648
107852,124648
108049,124696
108188,124759
108354,124735
108562,124811
108803,124948
109015,125024
109282,125072
109482,125225
109703,125256
109918,125381
110134,125454
110326,125513
110453,125601
110627,125628
110778,125707
110944,125748
111068,125825
111171,125862
111346,125884
111476,126000
111584,126006
111643,126033
111768,126119
111850,126125
111892,126145
111941,126122
111998,126208
112025,126178
112107,126194
112098,126210
112158,126209
112179,126238
112164,126198
112234,126198
112171,126238
112160,126184
112149,126188
112091,126117
112029,126077
111995,126085
111957,126010
111892,126001
111811,125937
111813,125912
111738,125915
111685,125882
111686,125845
111622,125839
111587,125774
111593,125802
111539,125756
111539,125732
111518,125742
111487,125704
111506,125732
111482,125717
111521,125684
111492,125690
111455,125659
111474,125646
111478,125688
111429,125637
111454,125666
111430,125645
111483,125658
111431,125662
111444,125644
111441,125663
111404,125657
111459,125622
111485,125665
111480,125652
111510,125668
111558,125681
111615,125711
111653,125691
111711,125742
111719,125790
111768,125786
111793,125814
111781,125777
111789,125822
111747,125801
111777,125793
111703,125800
111714,125746
111710,125790
111678,125720
111707,125760
111975,125944
112028,125918
112064,125949
112124,125938
112139,126006
112188,126008
112194,126027
112196,126009
112275,126043
112529,126109
112524,126160
112546,126123
112524,126155
112536,126133
112557,126117
112530,126137
112541,126141
112597,126123
112585,126153
112624,126113
112666,126182
112693,126163
112787,126157
112834,126212
112886,126174
113022,126265
113878,126519
113906,126536
113921,126535
113941,126542
113968,126529
113977,126570
114006,126559
114019,126555
114073,126525
114065,126506
114059,126497
114061,126484
114051,126452
114083,126489
114069,126455
114068,126449
114079,126456
114087,126456
114125,126459
114093,126449
114139,126474
114132,126442
114176,126488
113550,126051
113315,125971
113086,125848
112864,125713
112624,125579
112454,125514
111396,124858
111334,124879
111342,124835
111296,124813
111347,124805
111327,124804
111379,124833
111377,124826
111396,124866
111380,124832
111463,124862
111445,124889
111496,124870
111550,124919
111689,124947
111716,124956
111737,124978
111738,124995
111754,125021
111805,124995
111786,125002
111794,125018
111833,125015
111874,125046
111852,125040
111897,125018
111893,125074
111903,125026
111960,125064
111910,125072
111973,125060
112027,125135
112055,125105
112099,125140
112167,125169
112222,125173
112316,125220
112381,125229
112479,125275
112566,125340
112617,125360
112697,125352
112759,125427
112757,125388
112823,125420
112824,125434
112803,125389
112847,125416
112765,125381
112777,125362
112727,125363
112660,125329
112585,125274
112586,125241
112463,125173
112424,125152
112334,125133
112294,125068
112261,125082
112187,125010
112216,125004
112135,125011
112138,124943
112167,125015
112185,124988
112184,124984
112230,124968
112229,124975
112248,124990
112241,124961
112222,124982
112249,124973
112214,124972
112212,124938
112147,124909
112168,124907
112131,124894
112139,124902
112103,124872
112088,124873
112100,124848
112057,124837
112079,124842
112037,124826
112049,124814
112046,124776
112034,124794
112006,124763
112045,124769
112005,124777
112013,124755
111993,124761
111984,124770
112034,124730
112018,124778
111982,124709
112037,124759
112027,124787
112067,124741
112096,124793
112075,124749
112147,124780
112158,124804
112153,124824
112143,124809
112205,124829
112189,124839
112238,124813
112250,124875
112235,124826
112257,124866
112251,124840
112256,124855
112270,124839
112315,124871
112311,124894
112318,124872
112381,124894
112337,124919
112393,124905
112395,124938
112430,124953
112454,124961
112457,124936
112509,124952
112523,125006
112544,124960
112566,124992
112547,124950
112564,124987
112513,125018
112550,124954
112560,124987
112516,124937
112538,124956
112488,124954
112560,124976
112558,124967
112548,124953
112536,124929
112550,124928
112520,124942
112522,124904
112525,124959
112500,124911
112567,124935
112532,124920
112561,124918
112543,124957
112553,124909
112608,124953
112573,124938
112601,124943
112630,124968
112616,124971
112624,124955
112664,124968
112670,124952
112671,124954
112692,124943
112684,125005
112727,124962
112788,125020
112755,124972
112795,124980
112771,125012
112796,124988
112837,125012
112787,125012
112827,124989
112847,125032
112858,125012
112862,125029
112800,124978
112867,125022
112861,124995
112896,125034
112872,124978
112903,125027
112911,125049
112941,125039
112939,125079
112955,125024
113028,125101
112994,125094
113064,125090
113098,125172
113129,125117
113144,125154
113196,125158
113227,125162
113198,125205
113264,125182
113272,125223
113284,125188
113315,125248
113278,125218
113354,125237
113276,125203
113314,125178
113293,125238
113315,125201
113316,125223
113274,125192
113304,125166
113276,125199
113259,125179
113254,125131
113248,125143
113244,125147
113266,125169
113217,125141
113272,125123
113232,125111
113193,125061
113192,125062
113187,125082
113074,124995
113002,124943
112907,124934
112820,124814
112640,124738
112465,124617
112322,124556
112129,124439
112002,124404
111846,124317
111711,124243
111589,124124
111489,124105
111387,124015
111347,123977
111257,123993
111223,123925
111195,123945
111124,123878
111125,123879
111135,123888
111127,123878
111115,123875
111158,123932
111205,123942
111211,123967
111238,123954
111312,123978
111319,124022
111337,123969
111419,124058
111359,124039
111428,124006
111445,124071
111463,124045
111469,124104
111481,124061
111557,124086
111532,124104
111542,124087
111588,124097
111568,124085
111623,124135
111642,124111
111630,124122
111691,124136
111708,124122
111680,124166
111734,124140
111803,124156
111781,124173
111796,124159
111867,124216
111857,124180
111940,124204
111942,124235
112002,124222
112021,124253
112065,124271
112117,124292
112142,124293
112189,124292
112265,124355
112294,124383
112328,124354
112349,124410
112364,124411
112440,124406
112422,124447
112464,124397
112460,124436
112497,124441
112485,124430
112509,124422
112508,124421
112498,124388
112500,124399
112495,124384
112518,124385
112475,124418
112456,124357
112500,124367
112451,124385
112462,124335
112477,124353
112442,124320
112453,124317
112454,124338
112486,124312
112477,124357
112475,124308
112518,124338
112506,124332
112537,124342
112499,124356
112503,124349
112553,124327
112586,124356
112606,124372
112591,124341
112634,124391
112647,124374
112699,124391
112714,124435
112697,124387
112754,124426
112728,124433
112783,124428
112822,124487
112809,124448
112811,124440
112827,124473
112871,124492
112874,124483
112913,124490
112913,124495
112924,124469
112930,124516
112941,124501
113028,124542
112982,124518
113011,124499
113016,124560
113032,124560
113071,124594
113012,124565
113062,124558
113057,124565
113044,124555
113034,124546
113044,124535
113060,124577
113047,124559
113080,124570
113040,124603
113086,124539
113102,124592
113085,124543
113130,124589
113108,124555
113169,124567
113140,124621
113187,124565
113202,124597
113200,124593
113184,124579
113244,124610
113240,124635
113230,124605
113250,124576
113295,124603
113221,124643
113239,124593
113279,124629
113218,124573
113260,124580
113261,124607
113291,124567
113281,124619
113264,124581
113302,124608
113291,124591
113279,124601
113305,124611
113278,124574
113319,124556
113306,124609
113339,124579
113343,124612
113314,124577
113315,124577
113323,124575
113340,124589
113343,124574
113358,124610
113343,124602
113374,124571
113358,124625
113373,124620
113390,124614
113373,124608
113376,124586
113374,124615
113363,124562
113397,124619
113383,124597
113409,124590
113394,124628
113408,124573
113402,124625
113399,124592
113441,124606
113431,124620
113443,124595
113427,124628
113411,124618
113450,124577
113444,124606
113432,124610
113436,124577
113430,124558
113485,124628
113430,124591
113442,124550
113430,124590
113440,124569
113452,124590
113448,124586
113472,124546
113456,124606
113447,124552
113499,124593
113468,124589
113477,124599
113493,124553
113463,124586
113490,124591
113501,124616
113525,124576
113521,124604
113504,124564
113552,124628
113531,124605
113527,124620
113554,124590
113547,124617
113535,124600
113594,124605
113579,124628
113575,124616
113558,124618
113596,124617
113552,124599
113586,124617
113522,124612
113532,124565
113494,124582
113486,124533
113455,124559
113375,124500
113375,124456
113216,124410
113122,124318
112970,124285
112828,124140
112599,124071
112379,123906
112161,123811
111969,123687
111759,123623
111622,123525
111460,123453
111343,123367
111261,123376
111166,123305
111152,123260
111038,123294
111032,123218
111051,123260
110992,123218
110998,123202
110988,123218
111000,123208
111025,123260
111093,123275
111103,123275
111119,123318
111127,123286
111162,123316
111174,123344
111211,123364
111278,123394
111311,123411
111374,123438
111456,123468
111477,123515
111565,123541
111568,123528
111645,123563
111650,123564
111734,123615
111764,123624
111811,123607
111839,123619
111905,123674
111940,123695
112008,123707
112049,123717
112066,123757
112133,123762
112134,123770
112134,123794
112196,123771
112269,123830
112270,123828
112233,123852
112267,123832
112292,123839
112313,123847
112340,123886
112295,123861
112322,123877
112351,123828
112336,123886
112301,123842
112331,123857
112299,123852
112307,123805
112316,123834
112277,123806
112339,123852
112251,123814
112292,123793
112304,123849
112296,123788
112326,123834
112329,123846
112321,123810
112330,123806
112343,123793
112310,123792
112337,123801
112278,123777
112302,123768
112296,123792
112280,123745
112246,123767
112214,123721
112247,123740
112207,123734
112211,123726
112203,123735
112179,123690
112166,123690
112173,123678
112140,123698
112152,123693
112202,123697
112159,123705
112189,123679
112220,123740
112205,123695
112223,123734
112211,123708
112280,123720
112241,123755
112252,123723
112244,123754
112258,123722
112328,123737
112319,123729
112348,123732
112306,123754
112345,123739
112341,123716
112327,123716
112343,123670
112332,123710
112305,123676
112353,123669
112341,123710
112331,123631
112364,123693
112348,123632
112364,123640
112382,123664
112407,123649
112438,123676
112448,123652
112473,123693
112461,123698
112503,123688
112533,123745
112521,123719
112586,123692
112576,123779
112598,123714
112661,123784
112613,123776
112657,123768
112677,123814
112665,123775
112701,123821
112693,123773
112708,123793
112721,123813
112727,123783
112743,123759
112750,123820
112730,123769
112777,123822
112745,123775
112781,123766
112752,123821
112755,123752
112745,123772
112798,123778
112780,123770
112795,123784
112748,123757
112788,123760
112788,123797
112803,123769
112794,123772
112771,123779
112771,123772
112831,123754
112792,123802
112809,123761
112848,123808
112830,123765
112857,123782
112820,123766
112868,123781
112836,123817
112871,123754
112886,123796
112835,123760
112882,123787
112859,123802
112875,123821
112855,123772
112868,123761
112878,123764
112836,123775
112847,123743
112827,123761
112813,123696
112808,123746
112775,123708
112832,123699
112792,123716
112764,123663
112793,123710
112774,123659
112796,123688
112777,123682
112763,123686
112768,123687
112764,123692
112761,123645
112779,123654
112745,123623
112781,123621
112756,123678
112735,123613
112773,123626
112732,123617
112742,123584
112771,123639
112742,123598
112758,123615
112717,123601
112753,123604
112749,123605
112751,123581
112695,123575
112719,123575
112730,123573
112724,123594
112713,123531
112715,123575
112696,123536
112751,123560
112696,123556
112705,123513
112708,123543
112684,123508
112704,123515
112648,123480
112696,123506
112680,123491
112684,123496
112687,123484
112725,123482
112697,123494
112697,123482
112728,123508
112683,123532
112717,123501
112733,123527
112707,123480
112710,123492
112681,123502
112735,123479
112730,123509
112699,123465
112743,123500
112714,123471
112712,123489
112693,123460
112675,123438
112683,123457
112605,123400
112600,123405
112476,123348
112448,123273
112370,123260
112250,123198
112122,123073
112029,123006
111870,122968
111788,122865
111694,122837
111548,122737
111447,122694
111377,122638
111314,122594
111244,122580
111158,122549
111189,122507
111180,122566
111131,122514
111214,122528
111210,122567
111240,122536
111275,122599
111311,122562
111369,122627
111362,122613
111414,122658
111500,122657
111522,122708
111591,122708
111584,122718
111644,122761
111686,122772
111664,122784
111707,122758
111745,122813
111709,122789
111751,122821
111766,122834
111767,122781
111772,122835
111766,122799
111807,122848
111757,122815
111794,122806
111828,122828
111820,122837
111825,122804
111865,122842
111883,122860
111883,122864
111895,122849
111879,122871
111907,122849
111912,122908
111926,122870
111989,122906
111947,122915
111973,122894
112001,122944
112003,122905
112006,122905
111970,122909
112017,122920
112009,122917
111977,122931
112013,122902
111965,122915
111956,122868
111973,122913
111930,122847
111952,122866
111903,122826
111941,122834
111874,122872
111879,122813
111892,122838
111875,122773
111858,122803
111865,122815
111849,122783
111839,122786
111797,122790
111803,122794
111796,122750
111822,122780
111790,122781
111804,122749
111825,122783
111805,122733
111836,122766
111828,122806
111855,122776
111866,122801
111852,122765
111903,122778
111863,122813
111888,122796
111902,122778
111929,122837
111900,122821
111935,122828
111931,122827
111991,122815
111935,122852
111960,122800
111988,122841
111944,122839
112007,122813
111975,122852
111987,122815
112003,122833
111991,122819
112020,122802
112008,122835
112015,122828
111989,122818
111995,122825
112019,122827
112008,122837
112005,122844
112018,122830
112007,122836
112001,122802
112039,122844
111986,122851
112025,122815
112044,122804
111997,122824
112016,122787
112039,122827
112003,122801
112015,122791
112000,122829
112001,122784
111980,122789
111993,122772
111964,122764
111996,122805
111966,122756
111994,122785
111972,122787
111977,122752
111959,122796
111956,122759
112001,122780
111966,122752
111994,122760
111982,122791
111991,122789
111978,122759
111972,122773
111999,122778
111975,122746
112010,122762
111964,122782
111966,122744
112020,122764
111960,122737
111981,122752
111979,122760
112004,122716
111982,122724
111968,122717
112012,122747
111975,122782
111997,122717
111995,122733
111974,122746
112000,122755
111994,122725
111961,122718
111984,122690
111994,122753
111950,122715
112007,122720
111966,122730
111998,122722
111970,122715
111943,122677
112015,122718
111955,122709
111982,122696
112020,122719
111979,122738
111997,122693
112020,122745
111983,122703
112038,122719
112015,122737
112020,122696
112042,122763
112024,122726
112033,122718
112017,122718
112053,122705
112032,122753
112022,122696
112088,122755
112032,122695
112050,122705
112030,122691
112043,122695
112037,122737
112066,122718
112059,122718
112090,122724
112082,122765
112081,122723
112093,122734
112063,122715
112113,122724
112094,122750
112104,122715
112128,122734
112074,122705
112125,122728
112088,122731
112111,122737
112109,122730
112114,122732
112116,122710
112096,122749
112103,122679
112120,122708
112074,122728
112078,122696
112093,122711
112091,122729
112090,122678
112113,122716
112085,122697
112137,122676
112092,122723
112109,122681
112110,122706
112080,122695
112145,122709
112105,122693
112160,122722
112115,122734
112142,122704
112134,122741
112143,122710
112145,122729
112117,122704
112160,122694
112125,122721
112127,122679
112150,122708
112126,122690
112123,122699
112137,122703
112135,122672
112110,122663
112064,122666
112026,122628
112015,122649
111961,122571
111925,122540
111849,122537
111773,122452
111745,122442
111614,122338
111555,122304
111422,122232
111359,122171
111281,122178
111199,122087
111161,122080
111120,122044
111078,122026
111018,122024
111006,121959
111000,121981
110985,121949
111036,121982
111009,122018
111042,122023
111061,122023
111103,122022
111153,122084
111132,122056
111186,122079
111224,122108
111254,122086
111247,122125
111295,122113
111294,122118
111346,122171
111346,122196
111391,122207
111385,122192
111408,122225
111441,122221
111415,122222
111479,122227
111451,122235
111475,122244
111462,122211
111492,122241
111520,122254
111499,122242
111547,122239
111539,122273
111549,122282
111561,122270
111549,122266
111571,122284
111548,122257
111593,122281
111547,122274
111610,122294
111565,122280
111591,122270
111616,122291
111602,122277
111597,122314
111592,122278
111649,122293
111602,122331
111641,122299
111632,122303
111657,122310
111650,122308
111619,122290
111645,122318
111649,122269
111650,122309
111574,122260
111604,122273
111604,122288
111577,122236
111555,122246
111530,122231
111547,122187
111511,122212
111465,122157
111500,122182
111430,122166
111457,122183
111478,122149
111439,122132
111467,122166
111403,122140
111459,122147
111461,122190
111487,122155
111500,122196
111465,122155
111515,122190
111477,122192
111543,122187
111529,122200
111538,122208
111569,122196
111594,122225
111618,122214
111610,122260
111637,122209
111638,122291
111647,122242
111683,122266
111693,122305
111731,122258
111723,122300
111723,122266
111736,122319
111731,122295
111788,122300
111761,122316
111765,122292
111797,122337
111772,122313
111776,122316
111784,122330
111799,122326
111767,122307
111818,122318
111788,122313
111817,122309
111819,122326
111773,122287
111811,122305
111799,122326
111810,122308
111807,122325
111792,122300
111818,122317
111803,122316
111807,122307
111795,122288
111825,122322
111829,122302
111829,122281
111843,122320
111811,122314
111821,122312
111815,122324
111829,122290
111842,122318
111826,122294
111817,122324
111818,122310
111842,122272
111836,122298
111802,122298
111814,122265
111828,122294
111784,122260
111822,122267
111823,122246
111834,122300
111773,122302
111785,122254
111811,122314
111812,122255
111806,122274
111790,122279
111828,122288
111812,122309
111794,122254
111808,122289
111783,122265
111807,122261
111801,122269
111783,122255
111797,122270
111813,122270
111807,122299
111779,122261
111809,122264
111784,122238
111786,122225
111779,122285
111760,122247
111832,122265
111768,122265
111789,122226
111804,122268
111775,122243
111807,122255
111791,122253
111823,122234
111800,122253
111831,122271
111829,122254
111813,122276
111815,122224
111860,122251
111801,122277
111857,122221
111842,122247
111840,122269
111819,122245
111884,122249
111838,122292
111829,122226
111872,122275
111869,122248
111863,122237
111857,122236
111889,122257
111843,122291
111855,122236
111882,122278
111842,122236
111862,122228
111846,122262
111867,122212
111869,122262
111851,122205
111886,122246
111831,122229
111861,122212
111860,122254
111864,122245
111867,122228
111843,122242
111853,122242
111867,122221
111878,122230
111858,122235
111859,122207
111906,122262
111848,122247
111891,122211
111868,122233
111879,122184
111868,122254
111848,122215
111911,122250
111854,122245
111888,122208
111879,122233
111893,122204
111863,122227
111873,122200
111877,122260
111847,122204
111893,122216
111825,122207
111831,122209
111832,122193
111812,122169
111784,122186
111783,122129
111751,122148
111669,122090
111660,122066
111584,122047
111539,121984
111492,121950
111437,121932
111358,121890
111292,121816
111225,121826
111147,121769
111164,121749
111090,121746
111083,121676
111080,121729
111049,121669
111081,121698
111056,121697
111082,121680
111074,121731
111099,121698
111113,121723
111141,121746
111167,121750
111201,121780
111182,121737
111219,121832
111210,121800
111255,121809
111239,121820
111299,121801
111336,121862
111306,121836
111369,121844
111343,121896
111358,121861
111404,121922
111394,121874
111427,121900
111441,121897
111410,121904
111430,121884
111455,121900
111448,121931
111442,121894
111481,121941
111468,121904
111452,121901
111458,121949
111452,121904
111496,121898
111493,121932
111482,121917
111503,121951
111488,121934
111496,121950
111516,121917
111564,121952
111529,121972
111518,121958
111575,121939
111526,121954
111540,121934
111574,121979
111529,121944
111558,121933
111536,121940
111551,121919
111519,121978
111504,121913
111556,121941
111535,121917
111517,121921
111504,121868
111521,121890
111463,121872
111502,121920
111441,121888
111478,121861
111458,121889
111452,121843
111441,121882
111412,121852
111450,121839
111412,121876
111435,121820
111465,121873
111388,121840
111447,121849
111440,121860
111398,121866
111419,121864
111400,121854
111420,121863
111401,121841
111475,121881
111468,121862
111434,121868
111493,121881
111446,121886
111478,121844
111511,121887
111478,121871
111498,121862
111510,121912
111478,121859
111515,121898
111503,121878
111472,121853
111530,121908
111543,121894
111515,121920
111516,121865
111555,121920
111526,121893
111559,121895
111556,121915
111562,121869
111546,121924
111546,121849
111611,121943
111591,121923
111549,121920
111580,121893
111400,121854
111565,121890
111559,121918
111601,121921
111570,121895
111570,121882
111586,121920
111558,121883
111595,121906
111546,121882
111577,121871
111584,121911
111541,121876
111592,121909
111553,121876
111567,121859
111564,121906
111588,121883
111570,121848
111574,121915
111585,121867
111604,121890
111583,121909
111553,121871
111586,121854
111600,121905
111564,121848
111581,121869
111561,121901
111589,121858
111575,121874
111557,121848
111594,121872
111552,121900
111544,121855
111561,121839
111530,121833
111563,121853
111565,121854
111576,121840
111549,121817
111545,121860
111522,121827
111570,121834
111532,121830
111544,121796
111561,121833
111559,121843
111546,121812
111582,121843
111528,121861
111572,121840
111566,121858
111557,121798
111553,121817
111588,121854
111537,121821
111577,121827
111538,121829
111555,121810
111573,121854
111561,121813
111580,121836
111558,121862
111569,121806
111602,121860
111564,121814
111595,121834
111573,121841
111590,121844
111558,121837
111603,121817
111569,121841
111601,121834
111578,121854
111570,121815
111589,121863
111569,121841
111600,121818
111584,121851
111576,121796
111620,121864
111586,121860
111599,121835
111625,121862
111599,121809
111603,121843
111604,121844
111620,121862
111568,121831
111644,121844
111602,121860
111605,121812
111625,121864
111576,121846
111621,121838
111607,121843
111570,121844
111609,121816
111650,121843
111604,121858
111613,121811
111632,121850
111625,121832
111626,121832
111608,121844
111630,121840
111604,121844
111610,121801
111626,121853
111593,121797
111631,121833
111586,121852
111644,121799
111623,121857
111625,121801
111638,121847
111581,121810
111631,121828
111625,121826
111623,121812
111619,121814
111606,121807
111575,121809
111575,121773
111553,121830
111514,121764
111525,121743
111463,121747
111417,121663
111423,121685
111317,121644
111277,121579
111245,121582
111173,121514
111153,121534
111092,121492
111081,121460
111049,121438
111031,121464
110995,121451
110983,121414
110993,121404
110951,121390
111014,121398
110952,121426
110962,121411
110975,121394
111026,121443
111030,121428
111063,121472
111051,121452
111085,121450
111070,121481
111122,121453
111138,121482
111165,121523
111126,121491
111150,121496
111203,121540
111195,121541
111190,121511
111221,121555
111245,121549
111215,121562
111281,121578
111293,121570
111258,121560
111292,121571
111314,121581
111293,121588
111290,121602
111297,121576
111305,121582
111326,121615
111341,121608
111303,121581
111342,121594
111348,121614
111311,121622
111385,121640
111351,121615
111359,121594
111402,121602
111355,121651
111384,121619
111394,121646
111355,121600
111402,121621
111401,121626
111372,121633
111380,121631
111381,121629
111382,121642
111351,121603
111367,121638
111341,121584
111394,121603
111345,121590
111347,121580
111349,121582
111309,121598
111335,121562
111319,121579
111277,121557
111303,121551
111263,121540
111293,121556
111241,121541
111267,121540
111226,121528
111241,121498
111248,121557
111208,121531
111242,121523
111213,121520
111255,121525
111187,121530
111246,121490
111269,121545
111210,121511
111221,121511
111240,121517
111244,121554
111265,121543
111290,121522
111271,121524
111294,121540
111268,121551
111297,121526
111316,121566
111283,121549
111342,121534
111322,121596
111321,121544
111355,121581
111298,121551
111335,121554
111343,121587
111353,121543
111371,121593
111360,121582
111358,121560
111387,121561
111374,121583
111398,121606
111393,121563
111352,121609
111366,121563
111405,121584
111413,121619
111385,121595
111426,121589
111412,121618
111414,121583
111394,121602
111397,121585
111428,121580
111404,121597
111405,121608
111447,121590
111387,121606
111400,121560
111446,121588
111398,121560
111418,121585
111389,121596
111405,121554
111415,121570
111397,121538
111427,121562
111355,121587
111392,121557
111438,121579
111378,121561
111389,121556
111400,121574
111413,121559
111373,121556
111421,121575
111422,121595
111397,121527
111407,121568
111386,121554
111423,121566
111405,121576
111365,121524
111403,121582
111368,121539
111392,121553
111372,121574
111409,121530
111383,121575
111389,121557
111396,121555
111379,121557
111389,121534
111395,121557
111416,121533
111423,121568
111388,121574
111396,121528
111399,121564
111386,121547
111414,121568
111367,121580
111384,121519
111431,121586
111372,121554
111406,121561
111389,121549
111423,121582
111374,121560
111420,121558
111390,121539
111390,121531
111399,121575
111403,121518
111421,121575
111379,121528
111427,121536
111387,121541
111409,121545
111430,121554
111414,121555
111401,121542
111425,121541
111417,121556
111408,121528
111392,121551
111432,121560
111389,121550
111411,121505
111440,121573
111409,121543
111428,121535
111388,121554
111437,121509
111440,121572
111411,121551
111455,121521
111402,121577
111427,121501
111462,121583
111446,121550
111477,121546
111435,121569
111418,121530
111462,121536
111459,121545
111439,121525
111480,121530
111452,121568
111433,121527
111498,121560
111450,121571
111469,121523
111490,121565
111448,121523
111478,121558
111445,121573
111464,121560
111457,121531
111485,121563
111486,121554
111450,121547
111474,121555
111450,121535
111497,121578
111455,121571
111486,121505
111453,121525
111484,121521
111432,121510
111472,121524
111378,121539
111380,121463
111369,121485
111282,121412
111277,121383
111197,121356
111159,121327
111083,121303
111065,121260
111010,121261
110951,121194
110955,121181
110886,121191
110877,121133
110860,121149
110826,121104
110827,121139
110810,121133
110855,121118
110830,121170
110835,121123
110863,121163
110861,121151
110924,121198
110895,121185
110910,121154
110976,121239
110926,121205
110978,121194
111011,121254
110997,121202
111022,121247
111001,121257
111066,121254
111046,121272
111043,121232
111108,121294
111040,121262
111092,121290
111103,121262
111094,121275
111098,121318
111094,121259
111145,121311
111095,121312
111126,121270
111161,121301
111114,121317
111107,121300
111130,121280
111136,121321
111103,121287
111183,121318
111144,121317
111143,121291
111167,121299
111183,121327
111165,121309
111197,121369
111202,121321
111212,121348
111169,121323
111206,121311
111207,121371
111189,121315
111236,121366
111174,121337
111249,121334
111208,121363
111199,121303
111209,121371
111192,121357
111224,121329
111195,121351
111200,121308
111196,121293
111219,121338
111136,121292
111183,121295
111148,121317
111136,121276
111148,121298
111101,121268
111114,121255
111098,121283
111085,121230
111105,121263
111075,121218
111082,121248
111051,121237
111082,121254
111092,121249
111110,121251
111080,121276
111081,121219
111083,121293
111089,121238
111135,121290
111118,121284
111097,121262
111138,121268
111132,121298
111144,121241
111152,121307
111113,121253
111193,121283
111145,121309
111167,121276
111136,121283
111189,121279
111173,121302
111203,121300
111175,121335
111189,121296
111224,121338
111208,121301
111215,121295
111231,121319
111233,121306
111225,121354
111234,121302
111241,121326
111280,121290
111251,121355
111243,121305
111241,121309
111274,121351
111268,121309
111278,121348
111229,121320
111280,121313
111263,121348
111260,121319
111287,121346
111256,121355
111274,121332
111309,121366
111259,121301
111289,121341
111243,121322
111287,121332
111272,121358
111274,121317
111273,121350
111276,121337
111292,121296
111249,121333
111297,121339
111265,121309
111288,121345
111251,121313
111307,121320
111245,121358
111251,121290
111277,121364
111243,121320
111262,121306
111249,121339
111271,121309
111260,121310
111253,121318
111271,121316
111236,121313
111269,121297
111244,121335
111237,121309
111271,121315
111274,121293
111261,121307
111240,121299
111286,121309
111230,121330
111281,121308
111236,121321
111280,121350
111246,121324
111272,121331
111281,121301
111275,121307
111285,121321
111252,121307
111285,121300
111286,121327
111284,121299
111269,121333
111262,121303
111295,121312
111240,121332
111236,121279
111303,121360
111257,121304
111281,121301
111264,121332
111282,121309
111253,121320
111263,121313
111277,121322
111268,121313
111292,121334
111268,121287
111315,121324
111237,121309
111314,121301
111258,121348
111241,121277
111305,121328
111253,121280
111273,121302
111284,121333
111286,121267
111275,121310
111301,121302
111283,121275
111281,121318
111322,121312
111285,121329
111299,121280
111297,121306
111283,121259
111329,121310
111289,121285
111361,121297
111328,121306
111324,121324
111324,121300
111335,121316
111312,121336
111348,121310
111325,121322
111330,121294
111343,121308
111335,121308
111337,121321
111317,121333
111344,121298
111323,121327
111326,121276
111336,121316
111293,121305
111340,121308
111302,121315
111306,121255
111284,121287
111246,121223
111215,121248
111203,121196
111199,121181
111083,121161
111048,121119
111016,121123
110957,121043
110950,121079
110858,121018
110833,120988
110780,120970
110741,120924
110709,120939
110674,120889
110712,120893
110644,120889
110657,120843
110666,120898
110662,120880
110641,120885
110686,120903
110703,120888
110676,120893
110739,120910
110707,120946
110732,120895
110769,120976
110783,120922
110777,120943
110807,120930
110803,120965
110840,121002
110819,120942
110849,120993
110846,121004
110860,121003
110870,120995
110872,121013
110884,121015
110874,121014
110913,120989
110884,121056
110904,120998
110947,121050
110904,121027
110931,121027
110930,121061
110950,121022
110951,121070
110931,121024
110999,121056
110940,121080
110965,121041
110946,121043
110975,121056
110998,121079
111010,121076
110994,121085
111021,121086
111018,121084
111040,121089
111012,121085
111029,121104
111031,121100
111020,121095
111051,121090
111030,121087
111027,121103
111020,121083
111020,121093
110992,121090
111014,121069
110987,121081
111008,121072
110962,121056
110998,121071
110987,121065
110920,121065
110966,121054
110943,121053
110937,121046
110924,121052
110912,120984
110958,121055
110917,120995
110927,121006
110904,121032
110913,121008
110939,121009
110916,121023
110943,121042
110922,121033
110933,121019
110955,121071
110937,121011
110986,121040
110953,121080
110932,121019
110978,121079
110966,121030
110997,121044
110959,121036
110993,121064
111002,121043
111009,121076
111025,121074
111041,121074
111012,121068
111024,121056
111063,121113
111035,121094
111071,121101
111042,121128
111083,121069
111070,121124
111073,121092
111079,121115
111054,121085
111098,121101
111094,121131
111096,121106
111096,121128
111110,121120
111070,121121
111102,121129
111077,121125
111094,121117
111076,121103
111116,121116
111090,121145
111056,121092
111112,121118
111073,121116
111087,121076
111091,121139
111079,121102
111081,121128
111060,121103
111086,121086
111100,121108
111074,121099
111064,121112
111074,121072
111088,121119
111079,121090
111125,121083
111073,121133
111081,121082
111096,121113
111085,121078
111087,121100
111046,121073
111077,121085
111103,121099
111071,121115
111082,121095
111080,121084
111061,121069
111117,121092
111069,121129
111071,121062
111106,121109
111073,121115
111082,121074
111093,121115
111071,121062
111094,121109
111069,121094
111106,121088
111075,121123
111074,121069
111130,121108
111086,121100
111096,121100
111101,121109
111084,121106
111132,121099
111118,121106
111136,121099
111096,121095
111107,121076
111123,121120
111098,121088
111116,121098
111133,121116
111111,121070
111132,121110
111095,121072
111158,121108
111091,121113
111149,121092
111121,121093
111147,121087
111135,121100
111136,121089
111134,121099
111128,121097
111177,121109
111154,121129
111136,121096
111185,121141
111155,121087
111164,121124
111135,121084
111184,121102
111193,121135
111177,121142
111179,121106
111188,121097
111203,121103
111172,121126
111189,121128
111187,121092
111191,121141
111164,121094
111227,121134
111163,121120
111192,121112
111215,121143
111177,121121
111225,121110
111170,121112
111222,121095
111184,121146
111193,121108
111197,121095
111204,121111
111199,121114
111191,121121
111185,121114
111202,121150
111183,121106
111254,121126
111184,121118
111219,121122
111237,121161
111206,121115
111232,121149
111215,121137
111235,121110
111241,121169
111241,121118
111230,121138
111259,121155
111260,121144
111252,121163
111268,121126
111289,121182
111268,121148
111283,121161
111252,121164
111307,121157
111264,121175
111282,121172
111267,121181
111278,121200
111260,121163
111292,121137
111266,121186
111199,121114
111249,121122
111264,121145
111203,121146
111207,121087
111174,121087
111128,121029
111126,121034
111050,121039
110990,120972
110994,120993
110929,120896
110888,120898
110801,120854
110803,120846
110733,120859
110725,120789
110713,120792
110684,120782
110685,120775
110675,120774
110653,120746
110622,120773
110674,120748
110661,120784
110659,120754
110687,120785
110675,120821
110709,120769
110728,120830
110714,120794
110760,120842
110740,120819
110789,120810
110776,120854
110763,120859
110798,120864
110808,120880
110860,120877
110839,120903
110845,120853
110886,120891
110838,120898
110885,120897
110896,120897
110857,120929
110865,120871
110918,120903
110887,120917
110859,120883
110930,120925
110891,120900
110885,120912
110870,120881
110912,120916
110886,120929
110905,120897
110908,120928
110899,120884
110917,120921
110875,120911
110925,120931
110905,120964
110915,120895
110934,120941
110906,120913
110918,120914
110900,120936
110931,120925
110899,120898
110925,120926
110918,120907
110915,120892
110887,120924
110894,120872
110895,120908
110865,120877
110918,120881
110870,120922
110854,120860
110870,120901
110858,120862
110892,120865
110869,120860
110879,120853
110855,120891
110882,120881
110851,120906
110861,120874
110858,120865
110867,120858
110874,120853
110866,120897
110892,120882
110880,120882
110897,120857
110878,120861
110876,120854
110929,120889
110870,120915
110888,120858
110922,120908
110885,120887
110918,120889
110921,120871
110927,120914
110903,120885
110944,120893
110947,120929
110927,120892
110983,120931
110924,120917
110969,120888
110976,120945
110947,120876
110974,120948
110950,120907
110998,120921
110985,120908
110993,120928
110997,120925
110973,120934
110988,120926
110988,120915
111023,120907
111006,120948
111008,120914
111016,120952
110983,120928
111031,120931
110980,120962
111004,120901
111044,120966
111005,120924
111046,120931
111004,120970
111032,120925
111051,120954
111067,120977
111021,120960
111048,120955
111020,120955
111021,120953
111037,120974
111016,120953
111063,120941
111037,120967
111043,120907
111047,120970
111024,120942
111053,120935
111070,120975
111023,120916
111078,120927
111022,120972
111040,120926
111039,120930
111049,120959
111072,120951
111040,120972
111048,120934
111069,120983
111074,120914
111082,120973
111040,120916
111094,120945
111061,120965
111075,120927
111077,120938
111085,120975
111059,120930
111091,120932
111103,120965
111076,120957
111105,120919
111080,120931
111127,120984
111123,120952
111079,120990
111080,120917
111132,120958
111082,120996
111103,120948
111122,120964
111092,120948
111107,120965
111109,120944
111145,120977
111085,120978
111101,120969
111122,120983
111110,120959
111107,120941
111132,120982
111138,120960
111163,121011
111144,120957
111175,121007
111131,120985
111186,120965
111172,121034
111163,120983
111210,121018
111168,121004
111185,120996
111205,121033
111189,121013
111220,121026
111195,121039
111202,121037
111203,121021
111238,121007
111197,121013
111205,121007
111221,121034
111203,120989
111216,121047
111212,121009
111247,121048
111187,120999
111190,121036
111237,121011
111231,121018
111228,121037
111211,121014
111217,121020
111229,121052
111245,120994
111246,121023
111192,121022
111238,121001
111219,121046
111229,120996
111254,121033
111210,121016
111250,121029
111259,121067
111228,121017
111247,121025
111208,121015
111243,121015
111242,121040
111231,121036
111254,121047
111229,121026
111230,121029
111268,121057
111216,121031
111232,121010
111235,121045
111235,121020
111240,121056
111199,121023
111261,121008
111211,121041
111208,120994
111238,121019
111166,121013
111179,120980
111152,120989
111124,120932
111110,120930
111065,120896
111003,120899
110976,120839
110918,120824
110868,120762
110868,120761
110746,120762
110721,120704
110678,120671
110655,120645
110606,120647
110563,120580
110579,120615
110555,120585
110523,120610
110537,120592
110577,120577
110524,120574
110608,120587
110586,120639
110623,120609
110638,120666
110621,120636
110675,120648
110688,120691
110724,120676
110756,120720
110738,120706
110798,120722
110767,120761
110805,120741
110814,120765
110842,120747
110841,120781
110817,120793
110848,120777
110840,120797
110864,120777
110865,120760
110876,120821
110869,120768
110893,120803
110861,120782
110908,120768
110893,120828
110901,120774
110919,120809
110897,120778
110922,120806
110897,120801
110961,120815
110922,120776
110961,120832
110929,120846
110976,120837
110983,120862
110980,120822
110953,120845
110990,120847
111001,120850
110985,120851
110980,120828
110976,120850
110985,120819
110975,120831
110966,120840
110964,120784
110931,120827
110966,120824
110935,120824
110949,120781
110918,120815
110924,120790
110924,120805
110905,120771
110880,120820
110888,120768
110868,120781
110904,120759
110851,120772
110864,120760
110878,120787
110848,120755
110840,120772
110845,120760
110855,120733
110870,120735
110822,120775
110847,120751
110842,120787
110829,120753
110887,120762
110834,120786
110886,120755
110906,120813
110864,120774
110914,120826
110883,120800
110955,120801
110919,120804
110963,120812
110928,120811
110918,120818
110954,120777
110952,120835
110936,120787
110956,120835
110971,120838
110954,120825
110953,120787
110962,120816
110943,120828
110974,120810
110977,120843
110956,120809
111030,120833
110984,120833
110998,120841
110990,120868
110998,120851
111017,120850
111024,120820
111030,120867
110989,120863
111044,120841
110991,120870
111036,120828
111056,120866
111016,120843
111055,120860
111029,120871
111049,120851
111028,120856
111067,120851
111020,120863
111024,120845
111035,120840
111053,120855
111035,120871
111052,120831
111042,120874
111021,120832
111081,120841
111023,120880
111034,120819
111056,120896
111035,120820
111054,120839
111032,120832
111068,120832
111037,120877
111052,120856
111052,120838
111016,120856
111057,120859
111025,120856
111016,120834
111032,120840
111047,120871
111009,120856
111053,120818
111060,120881
111019,120817
111072,120876
111027,120840
111053,120840
111025,120875
111046,120827
111052,120842
111021,120852
111059,120853
111062,120855
111045,120827
111076,120893
111023,120848
111065,120855
111021,120859
111063,120831
111043,120859
111036,120834
111068,120870
111074,120842
111069,120850
111102,120874
111055,120879
111069,120855
111067,120875
111079,120838
111054,120900
111036,120869
111086,120859
111093,120863
111064,120881
111101,120832
111097,120888
111066,120804
111132,120868
111054,120861
111120,120870
111086,120911
111109,120869
111099,120913
111092,120870
111101,120869
111115,120885
111104,120863
111122,120874
111103,120873
111088,120892
111080,120845
111121,120889
111082,120878
111116,120860
111107,120884
111110,120856
111114,120888
111097,120887
111143,120862
111106,120885
111112,120860
111135,120875
111134,120915
111105,120855
111127,120870
111153,120865
111139,120898
111108,120887
111148,120846
111129,120910
111122,120850
111168,120900
111145,120889
111137,120883
111143,120896
111155,120896
111129,120885
111159,120854
111169,120888
111175,120908
111166,120887
111131,120899
111161,120908
111137,120853
111203,120903
111158,120925
111168,120861
111197,120912
111154,120905
111183,120898
111145,120890
111179,120867
111139,120896
111101,120840
111118,120852
111045,120795
111012,120795
110988,120755
110916,120727
110912,120714
110812,120651
110799,120660
110725,120624
110706,120578
110658,120596
110637,120542
110593,120546
110557,120498
110572,120497
110487,120492
110527,120450
110529,120513
110526,120482
110530,120478
110575,120482
110545,120516
110595,120486
110624,120553
110601,120515
110644,120581
110613,120535
110674,120562
110690,120570
110686,120586
110711,120579
110684,120619
110704,120560
110740,120618
110699,120583
110756,120596
110729,120608
110718,120627
110735,120599
110737,120634
110735,120609
110781,120618
110753,120640
110762,120591
110784,120654
110766,120612
110795,120634
110757,120628
110811,120613
110796,120680
110782,120609
110802,120667
110789,120614
110818,120650
110828,120675
110795,120638
110839,120657
110856,120674
110855,120639
110835,120672
110828,120665
110897,120664
110849,120678
110878,120659
110898,120693
110850,120677
110884,120665
110874,120692
110870,120644
110873,120692
110870,120678
110865,120687
110866,120696
110876,120670
110853,120656
110842,120623
110819,120669
110813,120647
110854,120635
110828,120632
110818,120635
110799,120603
110818,120628
110779,120634
110799,120610
110789,120639
110764,120583
110795,120616
110775,120591
110800,120651
110770,120625
110799,120629
110769,120636
110778,120583
110774,120615
110754,120579
110782,120639
110793,120595
110816,120626
110777,120597
110804,120594
110790,120639
110837,120598
110792,120647
110826,120613
110833,120642
110840,120651
110829,120628
110867,120649
110865,120651
110871,120637
110864,120675
110843,120657
110893,120647
110866,120677
110844,120621
110909,120683
110865,120675
110893,120657
110875,120678
110884,120643
110885,120672
110869,120649
110900,120703
110892,120661
110946,120648
110933,120691
110871,120648
110935,120671
110888,120647
110930,120676
110918,120660
110952,120668
110874,120673
110903,120657
110964,120680
110892,120690
110937,120664
110943,120680
110941,120678
110906,120683
110946,120670
110920,120700
110978,120673
110942,120695
110926,120658
110982,120723
110935,120713
110959,120686
110932,120701
110959,120663
110959,120715
110957,120672
110976,120719
110948,120666
110977,120680
110972,120672
110976,120706
110950,120704
110990,120683
110950,120701
110955,120700
110975,120658
110948,120713
110944,120677
110984,120721
110955,120713
110969,120675
110962,120709
110953,120658
110992,120693
110945,120684
111002,120672
110954,120710
110992,120709
110981,120723
111015,120689
110998,120733
110994,120686
110989,120738
110971,120690
110973,120695
111020,120682
110970,120727
110973,120693
111014,120717
110984,120714
111007,120647
110996,120703
110984,120666
111020,120706
110995,120711
110987,120666
110988,120726
110979,120693
110980,120682
111027,120683
110992,120719
110990,120654
111018,120727
110975,120680
110988,120683
110997,120712
111035,120693
111008,120738
111008,120680
111026,120704
111017,120699
111015,120689
111021,120727
111056,120684
111003,120701
111050,120708
111021,120739
111011,120680
111038,120727
111011,120701
111051,120702
111031,120720
111022,120687
111031,120726
111004,120705
111039,120701
111025,120711
111026,120673
111063,120705
111037,120694
111018,120724
111042,120713
111051,120688
111010,120700
111060,120700
111024,120716
111007,120702
111068,120686
111010,120735
111022,120696
111075,120722
111017,120722
111036,120687
111063,120757
111026,120707
111049,120716
111022,120727
111061,120684
111081,120699
111067,120737
111048,120686
111089,120735
111039,120725
111080,120713
111059,120736
111076,120714
111077,120714
111059,120714
111085,120748
111081,120723
111047,120722
111069,120706
111049,120716
111067,120701
111089,120717
111038,120689
111030,120698
111016,120695
110959,120649
110964,120615
110937,120649
110890,120586
110865,120576
110788,120560
110788,120499
110701,120516
110661,120455
110690,120473
110599,120433
110593,120402
110583,120419
110557,120402
110542,120392
110557,120389
110546,120380
110561,120368
110567,120418
110537,120357
110602,120410
110566,120429
110583,120384
110620,120435
110563,120416
110617,120421
110612,120451
110656,120426
110659,120478
110645,120450
110643,120430
110700,120475
110667,120464
110719,120472
110672,120503
110716,120486
110731,120526
110717,120480
110732,120498
110703,120495
110725,120506
110771,120508
110727,120529
110753,120495
110755,120537
110735,120501
110779,120524
110777,120505
110785,120533
110781,120498
110771,120539
110735,120509
110811,120513
110760,120540
110790,120517
110766,120527
110800,120500
110771,120562
110760,120510
110831,120573
110774,120541
110807,120499
110788,120550
110799,120542
110813,120522
110837,120540
110797,120551
110775,120554
110780,120534
110774,120532
110810,120532
110757,120509
110782,120543
110805,120527
110751,120523
110787,120525
110772,120501
110752,120522
110768,120537
110750,120502
110751,120504
110743,120489
110717,120487
110724,120488
110723,120474
110705,120484
110709,120487
110695,120468
110718,120474
110668,120469
110698,120460
110721,120467
110713,120472
110721,120470
110728,120468
110693,120495
110729,120462
110736,120501
110726,120490
110736,120499
110737,120474
110748,120459
110769,120509
110698,120499
110762,120488
110745,120529
110743,120493
110747,120498
110732,120487
110785,120514
110736,120528
110768,120493
110800,120525
110772,120503
110774,120524
110791,120513
110784,120546
110793,120540
110833,120547
110786,120525
110793,120512
110801,120564
110782,120522
110833,120519
110806,120528
110814,120504
110821,120568
110799,120499
110873,120540
110795,120527
110831,120532
110834,120552
110830,120558
110856,120541
110836,120553
110871,120572
110871,120548
110838,120556
110871,120523
110843,120571
110836,120532
110890,120555
110828,120538
110857,120580
110849,120532
110887,120549
110858,120567
110850,120524
110895,120585
110869,120547
110891,120564
110855,120528
110885,120555
110875,120577
110881,120544
110916,120544
110871,120557
110880,120527
110885,120584
110900,120552
110909,120563
110885,120552
110910,120536
110871,120607
110883,120574
110920,120545
110895,120582
110915,120576
110883,120536
110895,120559
110918,120567
110887,120572
110876,120526
110926,120606
110892,120555
110906,120562
110899,120577
110898,120551
110878,120598
110875,120556
110914,120568
110897,120588
110890,120529
110927,120602
110897,120601
110891,120572
110911,120560
110914,120619
110905,120563
110956,120598
110888,120575
110912,120602
110897,120606
110916,120585
110973,120602
110911,120615
110933,120586
110970,120602
110916,120571
110955,120564
110929,120606
110946,120575
110950,120567
110907,120598
110945,120597
110949,120573
110936,120603
110918,120581
110964,120594
110955,120629
110957,120556
110954,120600
110954,120563
110953,120600
110913,120558
110973,120606
110959,120605
110943,120580
110980,120601
110924,120569
110967,120586
110976,120562
110933,120604
110941,120547
110996,120611
110952,120593
110962,120573
110976,120620
110953,120578
110965,120573
110941,120568
110982,120585
110971,120622
110970,120563
111006,120598
110986,120601
110977,120584
110982,120586
110975,120620
110983,120575
111020,120608
110997,120613
111013,120580
110998,120621
111009,120560
111007,120631
110981,120591
111011,120592
110984,120626
110985,120566
111027,120609
110962,120590
111002,120623
111004,120615
110969,120601
111001,120590
110997,120600
110961,120592
110990,120573
110955,120612
110947,120544
110962,120563
110889,120473
110882,120519
110795,120470
110795,120441
110719,120438
110709,120380
110631,120385
110552,120348
110551,120301
110482,120279
110463,120212
110426,120241
110387,120219
110408,120199
110351,120222
110347,120168
110381,120197
110310,120173
110355,120182
110351,120176
110395,120198
110382,120240
110378,120194
110396,120239
110414,120218
110440,120256
110445,120237
110482,120270
110453,120252
110500,120305
110501,120278
110542,120295
110541,120333
110540,120279
110593,120313
110560,120350
110590,120322
110604,120358
110585,120304
110606,120338
110603,120370
110640,120324
110617,120351
110633,120363
110672,120332
110634,120408
110646,120374
110662,120382
110683,120335
110670,120404
110647,120336
110709,120373
110663,120377
110660,120408
110672,120396
110715,120426
110699,120424
110752,120402
110728,120447
110724,120400
110763,120436
110754,120432
110758,120454
110759,120433
110776,120399
110770,120440
110732,120410
110781,120402
110737,120442
110735,120397
110774,120431
110734,120403
110756,120405
110717,120398
110736,120383
110718,120400
110687,120374
110704,120367
110724,120400
110697,120389
110713,120360
110696,120381
110662,120357
110684,120345
110668,120379
110633,120320
110676,120354
110625,120378
110644,120352
110696,120382
110634,120350
110682,120342
110656,120367
110673,120341
110686,120367
110672,120378
110720,120389
110717,120351
110711,120408
110686,120348
110741,120417
110705,120414
110718,120372
110739,120390
110700,120414
110728,120378
110766,120411
110725,120415
110743,120365
110776,120443
110755,120380
110763,120407
110791,120408
110791,120446
110759,120443
110792,120412
110803,120457
110789,120387
110837,120444
110784,120454
110799,120430
110835,120450
110804,120419
110834,120452
110808,120458
110846,120434
110817,120472
110837,120430
110840,120479
110840,120472
110845,120465
110831,120480
110843,120447
110882,120476
110848,120460
110891,120451
110852,120472
110844,120430
110883,120460
110847,120482
110850,120444
110872,120495
110867,120441
110886,120489
110852,120436
110906,120481
110913,120468
110874,120443
110883,120479
110863,120461
110878,120460
110905,120463
110874,120452
110891,120482
110883,120443
110911,120476
110861,120477
110895,120458
110892,120487
110842,120445
110911,120464
110849,120481
110875,120439
110890,120445
110898,120438
110880,120454
110858,120463
110885,120435
110885,120478
110856,120441
110891,120457
110836,120478
110868,120440
110897,120480
110859,120429
110885,120471
110851,120455
110866,120477
110885,120471
110884,120487
110886,120458
110896,120482
110892,120454
110863,120457
110884,120509
110878,120449
110935,120475
110889,120502
110909,120454
110920,120491
110894,120480
110939,120474
110897,120466
110948,120448
110906,120514
110888,120458
110950,120504
110931,120481
110919,120510
110958,120507
110921,120494
110925,120448
110920,120480
110934,120473
110907,120481
110934,120452
110936,120512
110913,120491
110962,120487
110906,120506
110937,120474
110956,120536
110934,120472
110968,120515
110948,120468
110958,120500
110949,120518
110960,120495
110981,120476
110983,120535
110956,120471
110990,120531
110970,120523
110993,120507
110976,120539
110972,120479
110997,120544
110974,120517
111005,120518
111006,120502
111002,120521
110991,120520
110985,120521
110983,120543
110982,120513
110987,120527
110962,120494
110978,120481
110921,120525
110897,120439
110924,120477
110852,120415
110834,120415
110772,120395
110763,120348
110717,120368
110661,120287
110663,120301
110565,120260
110564,120238
110539,120192
110514,120241
110515,120190
110511,120206
110450,120187
110465,120216
110446,120164
110498,120168
110474,120213
110475,120185
110518,120220
110490,120203
110506,120192
110536,120255
110528,120201
110538,120229
110554,120246
110565,120251
110590,120280
110597,120302
110616,120247
110666,120298
110609,120277
110673,120297
110670,120315
110663,120285
110680,120324
110676,120308
110713,120329
110732,120325
110693,120355
110685,120322
110721,120323
110715,120348
110723,120350
110734,120351
110730,120320
110724,120355
110736,120391
110726,120338
110779,120339
110761,120386
110734,120344
110774,120399
110757,120372
110786,120355
110751,120371
110784,120354
110768,120422
110773,120352
110826,120407
110794,120396
110794,120380
110821,120373
110817,120388
110779,120365
110802,120385
110802,120364
110784,120368
110743,120344
110798,120384
110788,120373
110731,120359
110759,120345
110741,120341
110729,120336
110709,120327
110738,120335
110728,120344
110688,120318
110701,120320
110725,120323
110677,120315
110701,120297
110680,120311
110678,120317
110657,120281
110704,120315
110655,120308
110692,120301
110682,120321
110650,120316
110655,120267
110696,120301
110692,120329
110679,120299
110706,120336
110685,120307
110682,120300
110707,120297
110704,120362
110723,120313
110738,120329
110708,120334
110768,120321
110737,120384
110732,120324
110784,120369
110738,120350
110745,120340
110772,120370
110790,120332
110785,120379
110785,120355
110782,120369
110779,120383
110792,120358
110813,120377
110779,120367
110813,120353
110807,120398
110804,120358
110873,120402
110833,120413
110837,120366
110868,120414
110840,120385
110858,120404
110851,120410
110858,120380
110840,120405
110819,120386
110903,120386
110856,120428
110833,120387
110894,120423
110852,120431
110883,120402
110871,120410
110885,120420
110861,120381
110900,120394
110871,120442
110857,120376
110916,120433
110852,120402
110893,120410
110873,120422
110912,120428
110915,120412
110883,120402
110886,120398
110879,120429
110872,120401
110911,120427
110870,120409
110911,120420
110874,120444
110918,120397
110906,120456
110907,120400
110948,120449
110888,120392
110924,120439
110903,120448
110926,120445
110918,120413
110911,120457
110896,120416
110955,120409
110882,120464
110894,120400
110937,120463
110896,120431
110913,120422
110904,120423
110951,120407
110895,120458
110884,120397
110947,120453
110893,120448
110915,120434
110904,120428
110919,120431
110894,120448
110898,120427
110931,120416
110908,120432
110920,120434
110940,120434
110943,120437
110932,120488
110957,120438
110940,120464
110913,120425
110967,120439
110932,120473
110909,120409
110954,120466
110918,120453
110921,120445
110981,120436
110945,120484
110930,120422
110947,120464
110932,120441
110957,120430
110956,120466
110916,120431
110981,120467
110938,120430
110981,120457
110951,120431
110971,120468
110963,120451
110984,120477
110976,120438
110975,120449
110965,120449
110973,120441
110997,120447
110967,120469
110959,120431
110975,120464
110967,120461
110967,120455
111001,120504
110972,120443
110993,120468
110964,120465
111016,120454
110974,120491
110975,120446
110985,120454
110998,120445
111005,120451
110979,120452
110972,120417
110957,120418
110910,120432
110875,120372
110857,120377
110796,120345
110780,120279
110713,120311
110683,120248
110681,120264
110591,120222
110597,120163
110569,120201
110538,120165
110494,120141
110473,120136
110504,120127
110463,120114
110468,120151
110495,120108
110479,120136
110471,120112
110515,120149
110485,120149
110532,120122
110514,120166
110494,120136
110534,120187
110558,120171
110546,120162
110574,120195
110552,120173
110599,120203
110563,120184
110600,120206
110616,120199
110613,120247
110629,120197
110652,120227
110608,120207
110659,120223
110653,120264
110623,120223
110698,120267
110669,120261
110674,120241
110680,120277
110705,120256
110678,120266
110692,120267
110692,120270
110676,120235
110735,120267
110710,120285
110679,120274
110697,120241
110743,120285
110702,120262
110727,120257
110705,120288
110713,120249
110732,120310
110708,120282
110753,120276
110723,120295
110732,120286
110773,120279
110740,120270
110749,120317
110702,120260
110734,120273
110723,120264
110750,120309
110731,120290
110731,120255
110742,120313
110711,120243
110724,120247
110710,120262
110718,120257
110689,120269
110696,120237
110693,120269
110712,120242
110668,120246
110707,120249
110667,120271
110679,120213
110700,120239
110657,120231
110710,120217
110661,120275
110674,120210
110720,120276
110663,120231
110701,120242
110681,120235
110725,120272
110708,120289
110722,120257
110687,120250
110757,120280
110739,120276
110752,120302
110730,120273
110775,120282
110756,120302
110781,120284
110790,120327
110744,120292
110813,120290
110768,120329
110779,120275
110824,120326
110796,120311
110834,120278
110808,120306
110811,120315
110832,120344
110841,120331
110802,120323
110845,120356
110806,120295
110875,120355
110806,120333
110846,120317
110843,120363
110836,120320
110849,120326
110840,120314
110893,120351
110856,120320
110879,120343
110868,120343
110868,120326
110887,120362
110853,120356
110902,120347
110858,120365
110866,120318
110923,120359
110846,120336
110891,120350
110887,120395
110867,120327
110885,120363
110855,120353
110877,120310
110862,120379
110860,120316
110893,120352
110874,120355
110879,120343
110827,120351
110852,120338
110879,120338
110834,120354
110864,120313
110874,120365
110862,120332
110896,120333
110865,120373
110846,120330
110912,120377
110855,120336
110893,120329
110866,120355
110852,120325
110853,120356
110847,120361
110891,120348
110876,120339
110899,120370
110845,120354
110887,120365
110854,120307
110871,120367
110895,120341
110873,120328
110906,120363
110859,120338
110884,120328
110885,120373
110899,120327
110909,120355
110873,120356
110889,120370
110873,120337
110864,120332
110887,120322
110877,120374
110890,120315
110914,120377
110884,120349
110922,120352
110901,120391
110910,120340
110935,120381
110912,120336
110937,120327
110917,120371
110900,120376
110940,120379
110936,120352
110924,120370
110942,120356
110963,120378
110928,120393
110951,120359
110969,120401
110933,120365
110972,120385
110938,120395
110987,120370
110967,120424
110980,120371
111009,120410
110957,120379
110995,120390
110988,120402
110988,120399
110979,120388
111003,120380
110975,120426
110989,120369
111020,120439
111022,120409
111050,120423
110982,120417
110965,120371
111039,120416
110971,120419
110984,120382
110988,120420
110985,120387
111001,120390
110988,120409
110987,120404
110954,120370
110962,120363
110953,120340
110948,120352
110878,120316
110893,120305
110838,120321
110795,120249
110780,120256
110691,120228
110686,120163
110664,120194
110604,120124
110574,120145
110550,120113
110492,120088
110493,120079
110479,120099
110466,120084
110442,120087
110456,120052
110509,120076
110467,120049
110477,120051
110484,120104
110478,120061
110511,120087
110492,120065
110546,120096
110521,120134
110541,120098
110592,120144
110567,120117
110589,120141
110583,120161
110615,120160
110621,120139
110652,120160
110640,120184
110659,120142
110661,120174
110640,120200
110663,120158
110674,120206
110649,120168
110689,120179
110663,120236
110660,120157
110705,120210
110660,120177
110672,120184
110660,120208
110676,120205
110680,120177
110689,120161
110680,120202
110675,120202
110702,120213
110706,120233
110698,120195
110741,120235
110696,120196
110702,120226
110717,120240
110742,120212
110746,120258
110743,120203
110768,120240
110745,120242
110739,120204
110780,120240
110769,120231
110772,120259
110741,120212
110753,120226
110723,120233
110749,120184
110739,120249
110700,120180
110733,120217
110689,120199
110699,120168
110687,120215
110666,120156
110672,120189
110664,120175
110640,120140
110636,120147
110631,120162
110609,120167
110645,120145
110636,120184
110620,120177
110646,120135
110624,120188
110630,120134
110686,120169
110629,120174
110654,120121
110686,120211
110664,120184
110704,120173
110691,120194
110702,120162
110698,120198
110706,120186
110757,120246
110685,120202
110741,120201
110713,120211
110740,120173
110739,120227
110720,120183
110764,120222
110758,120190
110751,120217
110764,120216
110722,120219
110760,120218
110761,120210
110763,120210
110757,120240
110753,120234
110766,120219
110770,120216
110751,120228
110777,120233
110785,120250
110820,120228
110773,120228
110816,120242
110817,120251
110802,120234
110777,120243
110822,120239
110789,120251
110815,120229
110824,120210
110834,120258
110806,120236
110828,120250
110770,120237
110825,120250
110821,120240
110783,120234
110823,120254
110799,120239
110807,120227
110815,120249
110795,120235
110806,120241
110818,120245
110810,120242
110817,120227
110797,120242
110807,120255
110815,120246
110798,120235
110834,120257
110812,120230
110820,120241
110765,120233
110840,120259
110824,120239
110838,120234
110794,120226
110834,120281
110791,120225
110813,120234
110806,120221
110788,120240
110810,120252
110810,120225
110790,120241
110826,120243
110798,120240
110814,120244
110836,120244
110789,120225
110840,120233
110829,120241
110780,120245
110839,120264
110836,120246
110803,120244
110820,120269
110815,120262
110832,120241
110826,120252
110826,120225
110845,120253
110845,120245
110839,120253
110861,120265
110845,120269
110848,120246
110867,120238
110850,120288
110868,120235
110864,120280
110823,120239
110903,120251
110898,120277
110874,120241
110925,120287
110886,120278
110902,120296
110900,120289
110896,120301
110884,120266
110937,120300
110893,120274
110927,120274
110927,120287
110941,120279
110933,120272
110953,120302
110914,120275
110966,120321
110937,120339
110943,120276
110949,120316
110955,120322
110945,120318
110924,120289
110956,120318
110922,120291
110911,120271
110949,120300
110855,120273
110883,120239
110848,120260
110818,120193
110794,120222
110734,120165
110762,120178
110667,120135
110678,120094
110622,120098
110614,120077
110602,120075
110568,120045
110559,120023
110533,120047
110487,120013
110526,120044
110475,120022
110509,119997
110509,120032
110476,119988
110532,120053
110510,120059
110505,120001
110526,120060
110510,120038
110548,120054
110543,120057
110552,120060
110575,120083
110554,120061
110570,120099
110556,120028
110635,120116
110637,120101
110620,120125
110609,120084
110634,120097
110614,120123
110652,120081
110679,120135
110629,120111
110698,120099
110638,120155
110650,120085
110692,120136
110691,120110
110701,120160
110730,120144
110666,120130
110714,120138
110712,120137
110715,120144
110724,120145
110704,120154
110751,120148
110711,120161
110750,120191
110742,120170
110763,120160
110778,120194
110769,120183
110772,120171
110769,120197
110788,120171
110747,120199
110765,120196
110754,120164
110778,120164
110736,120166
110767,120184
110748,120172
110726,120161
110731,120162
110739,120170
110753,120136
110699,120142
110720,120153
110747,120130
110697,120155
110725,120137
110698,120153
110699,120129
110665,120136
110699,120128
110658,120106
110687,120123
110672,120102
110657,120120
110683,120112
110677,120112
110686,120107
110658,120099
110704,120128
110679,120107
110672,120133
110685,120109
110696,120139
110683,120151
110682,120124
110685,120123
110735,120120
110685,120140
110721,120138
110762,120163
110697,120143
110737,120170
110728,120139
110717,120155
110727,120146
110732,120170
110744,120166
110711,120159
110770,120171
110743,120160
110756,120197
110742,120173
110768,120162
110792,120172
110749,120162
110779,120204
110753,120147
110764,120168
110775,120177
110758,120212
110809,120179
110756,120172
110790,120196
110793,120173
110763,120176
110784,120181
110793,120179
110777,120188
110767,120167
110811,120200
110794,120186
110791,120184
110763,120157
110807,120205
110784,120201
110781,120165
110784,120168
110784,120145
110797,120178
110800,120188
110757,120168
110788,120190
110810,120178
110788,120165
110785,120164
110822,120198
110807,120183
110784,120184
110803,120176
110802,120185
110827,120182
110777,120175
110818,120215
110821,120172
110804,120187
110808,120179
110800,120201
110837,120187
110800,120196
110836,120174
110835,120180
110827,120170
110844,120183
110804,120179
110811,120169
110830,120176
110821,120195
110801,120184
110829,120200
110813,120203
110841,120207
110812,120186
110853,120201
110827,120216
110841,120181
110840,120218
110822,120199
110869,120208
110841,120199
110859,120193
110858,120215
110840,120205
110847,120184
110823,120219
110870,120180
110847,120223
110847,120177
110844,120232
110828,120198
110896,120191
110860,120245
110833,120190
110886,120240
110847,120218
110868,120214
110870,120212
110854,120220
110845,120212
110874,120215
110880,120249
110880,120206
110876,120222
110850,120183
110867,120218
110907,120204
110847,120205
110907,120190
110864,120235
110872,120189
110923,120244
110843,120213
110864,120184
110905,120227
110878,120225
110889,120239
110908,120243
110868,120205
110913,120224
110917,120223
110871,120235
110914,120244
110919,120231
110864,120236
110892,120220
110911,120233
110895,120225
110883,120211
110866,120214
110871,120214
110850,120189
110830,120164
110819,120169
110767,120133
110724,120130
110692,120094
110619,120040
110578,120042
110539,120003
110519,119976
110459,119951
110415,119913
110402,119916
110362,119884
110341,119858
110303,119867
110296,119833
110278,119819
110243,119824
110262,119842
110262,119850
110224,119831
110261,119819
110286,119838
110271,119808
110288,119838
110316,119838
110299,119875
110319,119855
110341,119855
110342,119886
110333,119869
110362,119886
110396,119900
110376,119926
110424,119934
110443,119944
110408,119923
110469,119967
110427,119936
110461,119927
110425,119934
110473,119962
110469,119945
110455,119952
110487,119950
110469,119940
110488,119957
110474,119935
110493,119970
110483,119951
110505,119945
110477,119965
110457,119955
110503,119963
110490,119959
110503,119974
110485,119968
110525,119997
110517,119966
110502,119971
110548,119988
110524,119986
110566,119975
110520,120000
110577,120003
110544,119993
110560,120029
110532,119999
110573,119998
110550,119985
110558,119982
110518,119985
110529,119979
110529,119994
110540,119970
110494,119963
110512,119974
110487,119957
110487,119962
110452,119942
110477,119953
110467,119949
110474,119945
110425,119938
110454,119940
110448,119926
110430,119906
110471,119946
110432,119927
110469,119940
110463,119931
110477,119939
110471,119940
110462,119936
110474,119947
110463,119929
110489,119961
110498,119940
110477,119944
110487,119956
110490,119952
110519,119969
110470,119961
110500,119964
110520,119935
110516,119976
110550,119998
110521,119983
110538,119974
110531,119970
110545,119984
110563,120000
110525,119978
110572,119992
110568,119972
110580,119999
110558,119997
110573,120007
110595,119997
110557,119996
110579,120006
110590,120030
110610,120018
110569,120004
110625,120018
110591,120006
110619,119992
110573,119992
110613,120019
110578,120006
110611,120019
110606,120023
110598,120031
110611,120002
110571,119989
110611,120038
110617,120011
110595,120006
110582,120033
110597,120001
110619,120012
110622,120013
110586,120025
110641,120028
110623,120027
110628,120020
110611,120031
110614,120037
110644,120021
110595,120008
110633,120019
110610,120011
110630,120016
110585,120009
110623,120013
110608,120043
110645,120014
110601,120032
110631,120032
110620,119995
110645,120007
110593,120013
110628,120017
110626,120019
110632,120003
110590,120014
110628,120016
110624,120016
110632,120008
110615,120007
110625,120018
110640,120007
110642,120026
110619,120026
110635,120022
110595,120024
110642,120016
110632,120003
110621,120017
110618,120020
110643,120024
110651,120017
110608,120000
110671,120028
110635,120021
110656,120022
110630,120018
110657,120050
110635,120010
110646,120025
110662,120018
110622,120035
110661,120013
110684,120029
110653,120034
110653,120012
110681,120008
110675,120031
110628,120017
110650,120036
110684,120042
110688,120051
110676,120057
110650,120038
110678,120059
110647,120032
110667,120042
110657,120024
110696,120030
110659,120039
110691,120040
110699,120052
110670,120035
110709,120023
110662,120035
110713,120091
110667,120018
110717,120066
110680,120024
110684,120046
110683,120063
110679,120018
110704,120059
110689,120021
110707,120035
110700,120056
110669,120049
110716,120076
110728,120063
110664,120039
110727,120063
110678,120058
110729,120066
110732,120073
110713,120063
110743,120106
110721,120066
110718,120056
110740,120036
110728,120076
110732,120054
110770,120090
110721,120042
110742,120065
110748,120082
110715,120062
110748,120052
110717,120071
110738,120047
110728,120076
110733,120066
110688,120066
110689,120011
110708,120051
110637,120025
110626,119972
110614,119990
110540,119933
110499,119909
110470,119871
110433,119825
110333,119855
110320,119769
110285,119777
110222,119688
110204,119718
110139,119702
110165,119655
110125,119681
110100,119634
110126,119658
110070,119673
110107,119631
110106,119654
110083,119634
110110,119658
110100,119654
110124,119652
110166,119684
110127,119682
110196,119709
110167,119740
110202,119690
110238,119730
110191,119713
110231,119746
110242,119763
110252,119739
110263,119770
110249,119756
110306,119783
110285,119812
110279,119768
110312,119768
110328,119799
110288,119791
110330,119807
110303,119789
110318,119792
110333,119804
110307,119786
110336,119770
110342,119813
110295,119799
110349,119815
110344,119803
110347,119753
110335,119800
110328,119806
110346,119806
110386,119818
110364,119813
110400,119819
110390,119795
110398,119868
110407,119822
110428,119847
110381,119828
110424,119837
110396,119874
110403,119837
110442,119872
110384,119832
110403,119836
110418,119839
110420,119851
110395,119813
110392,119841
110391,119778
110382,119846
110375,119805
110385,119816
110359,119775
110377,119799
110322,119794
110351,119783
110337,119810
110314,119758
110353,119797
110296,119802
110336,119757
110319,119784
110339,119743
110311,119802
110329,119786
110331,119753
110311,119771
110345,119784
110323,119802
110374,119787
110345,119794
110373,119798
110331,119796
110360,119783
110409,119823
110368,119814
110405,119820
110406,119845
110412,119778
110411,119852
110419,119822
110435,119837
110460,119856
110440,119851
110464,119857
110467,119877
110511,119854
110476,119888
110473,119829
110515,119898
110459,119853
110491,119857
110491,119893
110519,119851
110487,119871
110506,119889
110489,119842
110508,119869
110512,119889
110499,119858
110535,119864
110479,119844
110496,119842
110501,119925
110503,119867
110534,119864
110487,119873
110519,119846
110516,119906
110492,119846
110527,119869
110499,119891
110521,119844
110514,119903
110486,119847
110515,119871
110514,119890
110544,119872
110515,119875
110505,119870
110538,119899
110508,119850
110537,119858
110511,119892
110530,119867
110555,119900
110506,119859
110557,119895
110523,119893
110547,119847
110562,119929
110536,119867
110554,119886
110541,119879
110549,119891
110549,119887
110555,119892
110530,119874
110560,119928
110535,119890
110590,119895
110538,119901
110564,119860
110540,119916
110544,119889
110537,119871
110564,119889
110552,119920
110574,119873
110578,119916
110562,119901
110544,119912
110549,119913
110590,119871
110589,119905
110557,119891
110591,119899
110573,119955
110594,119874
110625,119932
110555,119909
110595,119898
110584,119930
110618,119910
110617,119949
110585,119885
110627,119921
110585,119912
110590,119891
110589,119910
110609,119906
110613,119924
110621,119939
110616,119910
110639,119926
110602,119942
110649,119922
110648,119958
110633,119914
110671,119946
110597,119923
110656,119930
110658,119970
110667,119924
110645,119957
110648,119957
110669,119939
110674,119949
110643,119954
110709,119935
110642,119974
110656,119923
110707,120006
110694,119953
110675,119968
110703,119948
110701,119968
110667,119969
110725,119954
110704,119986
110682,119968
110722,119985
110697,119978
110723,119982
110675,119972
110723,119968
110696,119956
110748,120007
110714,119972
110741,119968
110711,119993
110723,119958
110719,120017
110704,119978
110731,119987
110696,120010
110735,119955
110717,119991
110731,119998
110729,119988
110702,119962
110698,119939
110655,119913
110678,119949
110617,119954
110560,119860
110594,119867
110493,119879
110484,119794
110436,119814
110361,119725
110331,119726
110273,119707
110292,119678
110218,119689
110205,119634
110190,119636
110197,119627
110194,119629
110122,119623
110136,119635
110151,119592
110179,119639
110149,119603
110176,119627
110154,119598
110211,119623
110184,119629
110249,119668
110212,119707
110235,119646
110292,119701
110245,119680
110289,119698
110312,119696
110284,119721
110321,119739
110319,119728
110344,119733
110318,119725
110381,119763
110372,119746
110368,119766
110380,119767
110383,119766
110422,119760
110385,119770
110439,119814
110438,119780
110399,119777
110440,119778
110426,119786
110453,119803
110426,119804
110466,119805
110443,119807
110448,119804
110473,119804
110453,119795
110474,119808
110487,119829
110452,119817
110520,119819
110494,119853
110497,119813
110527,119847
110491,119812
110516,119835
110506,119847
110516,119835
110522,119789
110493,119822
110508,119796
110510,119803
110500,119811
110467,119820
110502,119794
110477,119847
110451,119793
110497,119817
110436,119790
110460,119763
110457,119810
110409,119761
110427,119756
110411,119792
110384,119767
110391,119770
110425,119774
110400,119777
110442,119743
110434,119805
110411,119758
110456,119791
110425,119755
110443,119778
110435,119811
110474,119779
110432,119790
110435,119785
110465,119795
110451,119804
110485,119807
110466,119810
110518,119793
110522,119813
110485,119838
110523,119797
110544,119842
110508,119810
110548,119833
110531,119877
110537,119832
110599,119877
110528,119836
110577,119837
110549,119878
110565,119824
110586,119878
110565,119860
110570,119880
110573,119871
110565,119859
110572,119861
110581,119874
110567,119882
110609,119858
110617,119907
110583,119886
110633,119890
110620,119919
110620,119863
110638,119901
110589,119909
110643,119887
110617,119913
110611,119870
110617,119877
110589,119921
110620,119873
110589,119881
110598,119916
110566,119865
110642,119884
110591,119915
110620,119879
110608,119916
110622,119866
110607,119902
110624,119872
110610,119899
110592,119864
110630,119871
110599,119902
110605,119880
110602,119896
110604,119866
110606,119859
110607,119885
110582,119904
110577,119873
110639,119900
110602,119898
110594,119860
110635,119906
110579,119900
110630,119886
110605,119927
110645,119887
110593,119909
110611,119871
110622,119883
110638,119915
110634,119887
110642,119888
110630,119917
110639,119900
110623,119866
110662,119903
110633,119901
110649,119877
110651,119939
110639,119873
110692,119911
110679,119950
110675,119882
110672,119935
110662,119912
110682,119920
110660,119924
110692,119928
110679,119903
110700,119902
110683,119953
110709,119920
110732,119956
110700,119910
110740,119940
110712,119948
110723,119942
110740,119934
110769,119958
110748,119976
110736,119928
110749,119941
110747,119948
110748,119969
110709,119959
110728,119970
110718,119927
110768,119961
110735,119934
110737,119933
110726,119963
110745,119932
110746,119956
110729,119932
110801,119969
110756,119975
110731,119932
110774,119984
110753,119943
110762,119963
110752,119957
110757,119954
110773,119980
110765,119985
110797,119970
110724,119947
110752,119933
110776,119986
110759,119944
110765,119959
110722,119956
110795,119950
110768,119982
110744,119948
110809,119950
110751,119993
110774,119953
110788,119978
110769,119967
110770,119960
110763,119976
110775,119936
110769,119988
110754,119959
110792,119959
110752,119967
110779,119971
110747,119932
110781,119968
110789,119980
110760,119951
110780,119982
110764,119975
110793,119966
110792,119979
110761,119974
110775,119985
110775,119983
110759,119939
110794,119952
110747,119954
110773,119942
110755,119974
110710,119927
110742,119904
110682,119916
110655,119864
110636,119897
110580,119818
110551,119823
110517,119754
110457,119737
110355,119684
110349,119667
110252,119614
110254,119619
110190,119601
110147,119535
110141,119525
110079,119528
110074,119508
110064,119513
110064,119489
110075,119513
110035,119503
110120,119512
110070,119554
110105,119517
110131,119554
110099,119529
110144,119550
110182,119557
110177,119578
110171,119557
110232,119626
110222,119625
110197,119622
110248,119605
110298,119645
110260,119631
110302,119643
110338,119705
110333,119627
110341,119676
110321,119684
110361,119670
110376,119694
110334,119674
110389,119694
110378,119735
110365,119679
110405,119693
110380,119717
110398,119672
110390,119742
110393,119698
110437,119738
110399,119717
110435,119686
110401,119746
110419,119739
110444,119714
110434,119758
110456,119749
110475,119713
110462,119744
110505,119742
110466,119750
110499,119757
110478,119761
110519,119738
110474,119789
110469,119735
110520,119765
110430,119745
110477,119718
110487,119795
110491,119725
110494,119759
110453,119731
110462,119742
110422,119715
110465,119702
110439,119738
110438,119690
110423,119736
110395,119694
110406,119712
110404,119707
110373,119712
110399,119679
110411,119721
110369,119681
110410,119671
110365,119724
110368,119659
110415,119713
110389,119706
110369,119674
110381,119716
110390,119698
110387,119707
110364,119686
110434,119717
110407,119698
110436,119705
110409,119739
110429,119698
110436,119745
110429,119693
110474,119732
110452,119761
110426,119749
110453,119743
110468,119729
110475,119755
110481,119758
110471,119736
110473,119772
110476,119748
110523,119761
110489,119784
110508,119757
110507,119784
110519,119752
110521,119765
110512,119771
110521,119772
110532,119819
110508,119772
110553,119787
110538,119797
110540,119770
110547,119792
110538,119782
110543,119771
110550,119766
110524,119775
110539,119790
110518,119809
110521,119753
110534,119792
110520,119782
110554,119762
110535,119812
110512,119761
110579,119811
110522,119789
110555,119769
110548,119775
110562,119778
110563,119754
110562,119816
110533,119773
110563,119804
110536,119824
110569,119783
110562,119816
110542,119771
110606,119825
110522,119787
110564,119802
110546,119803
110541,119834
110532,119793
110590,119787
110550,119796
110559,119781
110573,119828
110570,119822
110570,119779
110577,119831
110568,119794
110604,119805
110572,119806
110592,119808
110576,119850
110585,119813
110629,119844
110578,119809
110610,119806
110618,119849
110587,119801
110604,119824
110586,119818
110620,119819
110613,119833
110594,119843
110633,119795
110613,119848
110598,119798
110651,119849
110604,119848
110635,119804
110671,119858
110622,119825
110646,119834
110650,119875
110668,119835
110646,119883
110640,119851
110643,119826
110680,119835
110663,119837
110708,119863
110657,119870
110666,119839
110686,119874
110672,119835
110673,119873
110666,119826
110685,119871
110701,119864
110666,119863
110665,119849
110701,119876
110681,119878
110701,119862
110689,119886
110701,119863
110711,119887
110674,119864
110712,119842
110685,119900
110697,119864
110745,119897
110687,119892
110713,119861
110728,119905
110721,119858
110732,119908
110705,119884
110741,119876
110720,119926
110726,119877
110734,119879
110774,119908
110747,119885
110762,119889
110722,119886
110734,119928
110745,119864
110803,119912
110767,119921
110764,119874
110807,119946
110759,119895
110766,119876
110759,119902
110760,119887
110764,119933
110756,119912
110786,119917
110748,119928
110778,119907
110803,119894
110788,119924
110738,119891
110798,119909
110735,119921
110771,119861
110725,119878
110680,119843
110703,119848
110603,119837
110594,119752
110571,119768
110469,119695
110465,119708
110418,119690
110354,119666
110336,119616
110320,119645
110264,119596
110265,119563
110211,119560
110244,119558
110240,119581
110199,119533
110256,119541
110189,119573
110242,119534
110256,119601
110221,119554
110261,119605
110244,119537
110273,119570
110305,119614
110282,119610
110322,119617
110323,119617
110340,119625
110363,119630
110348,119636
110393,119656
110380,119661
110398,119640
110379,119664
110412,119693
110416,119670
110412,119669
110444,119671
110417,119681
110457,119686
110461,119715
110437,119691
110455,119692
110491,119708
110425,119718
110501,119702
110458,119711
110476,119696
110498,119724
110482,119742
110487,119725
110529,119753
110503,119749
110541,119712
110540,119780
110516,119724
110577,119781
110556,119773
110567,119803
110579,119772
110577,119754
110602,119780
110551,119761
110608,119793
110557,119794
110605,119754
110543,119814
110557,119723
110559,119808
110548,119748
110548,119766
110562,119766
110531,119753
110539,119740
110531,119750
110532,119757
110515,119729
110533,119724
110493,119715
110511,119734
110480,119701
110514,119716
110491,119744
110517,119699
110536,119741
110464,119681
110506,119711
110479,119749
110508,119717
110504,119757
110480,119714
110502,119731
110507,119736
110502,119717
110536,119717
110534,119715
110540,119737
110523,119758
110525,119732
110573,119741
110533,119781
110551,119730
110609,119792
110552,119757
110569,119742
110568,119807
110566,119755
110594,119771
110595,119768
110564,119795
110575,119753
110584,119780
110612,119779
110622,119819
110625,119764
110588,119816
110600,119773
110663,119808
110607,119790
110616,119761
110625,119804
110634,119816
110622,119807
110651,119819
110655,119840
110651,119793
110664,119808
110676,119820
110681,119818
110655,119825
110656,119815
110657,119788
110686,119839
110662,119800
110673,119821
110641,119798
110694,119791
110653,119829
110666,119805
110723,119842
110667,119825
110667,119814
110665,119849
110703,119817
110675,119808
110672,119813
110677,119786
110674,119812
110662,119792
110649,119844
110653,119799
110680,119815
110658,119828
110675,119790
110688,119838
110670,119799
110680,119808
110657,119826
110671,119781
110680,119827
110659,119829
110696,119822
110650,119811
110696,119812
110688,119815
110640,119797
110674,119794
110631,119821
110663,119796
110654,119835
110635,119785
110659,119802
110691,119819
110689,119836
110650,119796
110697,119840
110682,119837
110681,119826
110660,119817
110694,119825
110677,119844
110691,119792
110703,119845
110673,119803
110720,119827
110692,119856
110691,119825
110712,119857
110682,119830
110701,119829
110672,119819
110727,119808
110716,119875
110684,119816
110726,119846
110689,119825
110709,119844
110716,119830
110696,119828
110691,119844
110719,119797
110754,119845
110703,119830
110723,119825
110725,119864
110704,119818
110738,119844
110705,119839
110742,119805
110716,119853
110704,119815
110764,119832
110745,119828
110746,119841
110736,119844
110779,119846
110728,119868
110725,119829
110771,119875
110723,119820
110768,119851
110734,119839
110781,119866
110761,119842
110753,119859
110749,119815
110766,119871
110758,119848
110788,119840
110760,119851
110745,119835
110784,119849
110758,119891
110742,119850
110799,119870
110773,119904
110768,119843
110799,119882
110758,119839
110779,119865
110760,119882
110777,119834
110773,119892
110747,119857
110796,119878
110760,119873
110794,119867
110755,119864
110765,119856
110772,119859
110787,119861
110822,119877
110766,119864
110813,119840
110804,119907
110769,119873
110838,119899
110787,119898
110821,119858
110820,119910
110805,119880
110850,119901
110800,119877
110842,119888
110837,119889
110851,119892
110801,119927
110814,119872
110859,119900
110808,119880
110825,119885
110800,119899
110826,119888
110811,119877
110806,119896
110750,119841
110776,119849
110708,119848
110695,119783
110661,119791
110590,119750
110573,119722
110521,119693
110461,119663
110451,119618
110403,119628
110349,119552
110353,119587
110297,119574
110300,119538
110247,119567
110259,119505
110265,119546
110237,119520
110279,119545
110239,119552
110260,119532
110272,119537
110272,119545
110291,119553
110267,119539
110312,119552
110323,119550
110323,119588
110368,119566
110363,119600
110343,119578
110400,119604
110353,119649
110388,119597
110453,119650
110412,119616
110443,119625
110433,119655
110464,119615
110461,119664
110460,119640
110486,119646
110460,119652
110497,119661
110447,119686
110472,119685
110447,119660
110456,119666
110507,119695
110453,119654
110509,119677
110494,119701
110464,119651
110489,119677
110489,119693
110500,119655
110498,119677
110494,119689
110487,119671
110498,119688
110482,119688
110505,119667
110541,119709
110497,119676
110569,119695
110539,119722
110528,119682
110543,119733
110530,119700
110559,119706
110515,119684
110541,119697
110534,119676
110539,119691
110521,119688
110483,119670
110534,119677
110500,119645
110528,119684
110469,119678
110507,119663
110463,119672
110499,119638
110497,119697
110454,119648
110514,119666
110448,119697
110487,119649
110484,119671
110466,119636
110476,119675
110458,119660
110474,119630
110510,119664
110501,119684
110528,119652
110485,119680
110510,119655
110513,119700
110491,119665
110529,119670
110509,119717
110564,119668
110526,119686
110516,119692
110550,119696
110536,119727
110544,119681
110572,119714
110545,119713
110586,119705
110599,119704
110553,119701
110602,119698
110593,119740
110581,119687
110617,119734
110586,119741
110593,119698
110599,119760
110608,119710
110609,119737
110606,119707
110588,119725
110614,119725
110630,119729
110615,119748
110608,119697
110624,119753
110639,119725
110608,119748
110608,119689
110616,119755
110571,119732
110622,119731
110612,119764
110609,119704
110628,119761
110598,119730
110644,119726
110620,119763
110603,119727
110650,119736
110619,119731
110641,119728
110639,119730
110616,119716
110635,119748
110612,119743
110639,119709
110628,119741
110608,119722
110675,119748
110619,119778
110626,119731
110663,119768
110638,119723
110645,119749
110632,119776
110655,119722
110657,119749
110622,119725
110639,119737
110657,119768
110670,119733
110660,119753
110626,119719
110680,119760
110633,119758
110655,119760
110680,119759
110632,119765
110669,119733
110676,119775
110676,119737
110690,119755
110675,119749
110639,119730
110688,119787
110664,119794
110673,119722
110690,119791
110656,119763
110694,119743
110688,119799
110684,119763
110696,119783
110675,119779
110681,119753
110686,119796
110676,119725
110679,119781
110653,119753
110708,119759
110702,119753
110677,119794
110666,119771
110735,119796
110724,119769
110732,119777
110688,119816
110716,119750
110732,119788
110671,119773
110722,119777
110710,119806
110726,119776
110751,119791
110689,119775
110721,119768
110725,119801
110721,119780
110737,119791
110724,119774
110717,119759
110768,119791
110707,119769
110735,119771
110720,119814
110741,119764
110721,119816
110724,119768
110740,119782
110732,119784
110774,119802
110725,119821
110758,119775
110778,119801
110735,119791
110728,119781
110740,119790
110761,119813
110718,119777
110768,119797
110741,119812
110761,119772
110757,119820
110747,119808
110796,119807
110747,119818
110766,119796
110780,119819
110752,119775
110778,119824
110776,119791
110814,119807
110788,119801
110786,119811
110768,119808
110794,119822
110793,119807
110809,119792
110784,119816
110825,119840
110810,119796
110788,119824
110803,119826
110779,119830
110836,119835
110769,119829
110827,119858
110824,119824
110824,119810
110826,119834
110823,119808
110793,119839
110828,119864
110805,119823
110828,119839
110796,119818
110822,119846
110813,119842
110837,119846
110823,119831
110760,119813
110773,119827
110719,119777
110738,119718
110676,119747
110631,119689
110606,119692
110584,119644
110501,119620
110489,119636
110407,119551
110431,119567
110379,119567
110350,119498
110319,119533
110281,119476
110289,119493
110265,119468
110297,119465
110246,119499
110271,119447
110274,119509
110314,119495
110287,119492
110303,119482
110326,119488
110329,119497
110358,119533
110338,119534
110367,119517
110390,119561
110374,119518
110410,119549
110389,119572
110449,119569
110439,119580
110437,119555
110490,119600
110449,119581
110490,119591
110491,119622
110501,119583
110510,119620
110532,119587
110509,119644
110493,119585
110553,119647
110507,119619
110516,119613
110546,119620
110534,119646
110508,119606
110574,119639
110533,119663
110514,119606
110554,119660
110528,119614
110551,119643
110526,119619
110563,119636
110549,119648
110564,119657
110546,119646
110599,119628
110557,119669
110562,119629
110598,119669
110565,119641
110594,119645
110577,119650
110581,119627
110543,119668
110584,119663
110582,119623
110554,119656
110549,119647
110573,119660
110519,119598
110524,119643
110533,119581
110540,119654
110512,119596
110520,119606
110514,119619
110497,119591
110519,119608
110478,119589
110525,119583
110487,119632
110488,119558
110521,119602
110478,119600
110489,119593
110509,119567
110510,119582
110479,119573
110526,119600
110509,119596
110519,119608
110511,119610
110506,119573
110543,119624
110502,119620
110546,119616
110541,119662
110537,119608
110550,119634
110559,119635
110611,119628
110577,119648
110582,119669
110611,119651
110601,119650
110598,119661
110585,119624
110616,119648
110592,119665
110619,119630
110600,119683
110575,119636
110643,119675
110612,119688
110633,119649
110621,119678
110612,119658
110632,119680
110631,119663
110626,119656
110653,119673
110613,119659
110627,119666
110622,119643
110672,119691
110632,119657
110670,119651
110636,119687
110653,119666
110657,119702
110624,119672
110676,119677
110634,119681
110644,119652
110687,119699
110647,119659
110655,119676
110644,119665
110675,119693
110650,119705
110646,119694
110640,119685
110639,119678
110707,119693
110637,119679
110684,119709
110680,119684
110652,119672
110682,119701
110658,119677
110688,119685
110678,119709
110655,119662
110668,119701
110671,119691
110671,119696
110685,119702
110655,119678
110691,119699
110659,119700
110689,119696
110695,119705
110699,119673
110704,119721
110665,119658
110672,119678
110667,119671
110712,119676
110684,119717
110665,119682
110681,119698
110687,119685
110688,119738
110680,119699
110689,119703
110722,119682
110683,119727
110682,119685
110722,119701
110668,119688
110696,119696
110690,119730
110723,119693
110715,119702
110681,119680
110741,119721
110710,119725
110723,119721
110755,119712
110743,119732
110702,119738
110729,119715
110739,119716
110716,119748
110704,119701
110761,119737
110733,119703
110749,119756
110745,119767
110792,119714
110778,119739
110749,119713
110809,119749
110751,119766
110773,119713
110761,119735
110751,119714
110780,119755
110777,119746
110763,119720
110809,119745
110752,119760
110794,119728
110795,119764
110781,119733
110768,119742
110794,119760
110789,119778
110743,119749
110822,119746
110787,119778
110795,119733
110765,119747
110771,119742
110811,119751
110791,119780
110774,119750
110790,119759
110786,119771
110807,119745
110790,119773
110780,119731
110833,119768
110767,119788
110821,119760
110830,119783
110834,119733
110815,119802
110804,119727
110802,119765
110825,119769
110797,119772
110817,119779
110829,119792
110818,119775
110833,119743
110832,119792
110805,119762
110839,119739
110802,119803
110804,119745
110848,119781
110802,119738
110817,119771
110781,119748
110809,119730
110785,119760
110763,119726
110728,119707
110720,119694
110651,119680
110614,119654
110568,119609
110565,119578
110487,119551
110472,119551
110459,119524
110384,119520
110350,119437
110347,119461
110271,119454
110302,119421
110283,119453
110265,119409
110271,119413
110223,119416
110290,119451
110260,119427
110281,119411
110270,119434
110243,119402
110292,119433
110305,119461
110298,119407
110315,119497
110316,119443
110378,119483
110361,119511
110371,119472
110387,119495
110389,119494
110431,119522
110441,119524
110423,119524
110410,119528
110431,119514
110436,119568
110413,119533
110464,119547
110442,119557
110471,119519
110478,119572
110455,119534
110497,119556
110467,119545
110494,119540
110491,119580
110470,119545
110517,119568
110487,119582
110503,119552
110503,119616
110491,119561
110537,119588
110525,119582
110545,119574
110530,119594
110521,119582
110569,119584
110532,119617
110550,119594
110562,119611
110513,119568
110556,119595
110527,119596
110547,119593
110545,119571
110511,119573
110507,119597
110494,119559
110530,119610
110485,119557
110495,119541
110469,119559
110475,119512
110484,119564
110467,119532
110486,119520
110425,119550
110432,119542
110452,119521
110455,119507
110457,119527
110438,119545
110413,119504
110436,119521
110436,119525
110481,119550
110456,119523
110462,119521
110440,119569
110464,119532
110477,119560
110454,119525
110503,119546
110480,119564
110487,119531
110512,119580
110477,119523
110496,119563
110525,119565
110522,119566
110504,119570
110516,119545
110555,119575
110522,119563
110567,119581
110550,119597
110537,119580
110597,119595
110560,119622
110577,119576
110612,119623
110572,119587
110582,119599
110590,119625
110590,119618
110597,119615
110614,119607
110605,119621
110574,119650
110597,119610
110637,119647
110580,119619
110621,119597
110612,119661
110620,119600
110629,119640
110639,119605
110602,119628
110590,119604
110643,119607
110615,119635
110612,119617
110635,119619
110654,119647
110636,119634
110632,119602
110655,119628
110636,119657
110642,119599
110674,119656
110634,119644
110676,119629
110669,119670
110656,119633
110664,119657
110645,119642
110679,119638
110620,119661
110658,119629
110662,119655
110646,119619
110634,119633
110661,119635
110663,119661
110614,119647
110672,119641
110645,119667
110644,119616
110660,119658
110643,119677
110664,119629
110660,119666
110631,119632
110670,119634
110643,119662
110655,119619
110658,119644
110675,119650
110670,119631
110669,119638
110668,119663
110641,119649
110663,119632
110647,119654
110659,119634
110657,119662
110641,119669
110641,119645
110677,119664
110673,119672
110670,119627
110681,119652
110661,119644
110696,119638
110667,119649
110644,119631
110679,119664
110645,119664
110666,119655
110707,119660
110664,119661
110692,119646
110699,119695
110674,119631
110706,119658
110690,119641
110724,119643
110704,119689
110710,119644
110712,119672
110695,119676
110719,119686
110716,119681
110718,119669
110702,119674
110752,119705
110755,119687
110719,119664
110749,119692
110738,119696
110758,119691
110717,119664
110770,119694
110761,119678
110734,119675
110764,119702
110739,119694
110778,119685
110773,119695
110781,119697
110754,119703
110787,119720
110761,119688
110780,119697
110797,119686
110781,119699
110775,119700
110783,119713
110772,119701
110796,119689
110786,119679
110798,119712
110757,119660
110771,119701
110769,119724
110789,119700
110785,119710
110779,119708
110760,119702
110775,119699
110784,119725
110759,119705
110823,119733
110774,119724
110786,119691
110812,119732
110792,119699
110826,119734
110786,119726
110820,119714
110788,119716
110797,119711
110818,119724
110807,119728
110800,119699
110825,119711
110798,119692
110831,119743
110795,119697
110800,119724
110812,119722
110801,119695
110815,119761
110791,119692
110843,119733
110781,119727
110805,119685
110793,119722
110788,119688
110769,119705
110746,119659
110724,119674
110681,119611
110664,119618
110585,119590
110542,119555
110514,119521
110503,119509
110460,119515
110395,119425
110387,119437
110330,119429
110342,119387
110313,119401
110278,119345
110295,119378
110243,119383
110262,119359
110278,119371
110239,119356
110284,119385
110258,119394
110272,119350
110305,119411
110270,119366
110297,119400
110318,119420
110331,119400
110339,119447
110334,119399
110393,119447
110357,119434
110395,119468
110377,119463
110429,119464
110412,119463
110471,119477
110440,119497
110435,119466
110480,119489
110450,119496
110475,119459
110473,119497
110458,119489
110506,119524
110505,119524
110531,119493
110504,119537
110483,119485
110531,119544
110506,119538
110508,119521
110523,119515
110546,119544
110542,119504
110538,119524
110519,119520
110542,119511
110515,119533
110526,119559
110514,119523
110557,119525
110542,119556
110537,119528
110582,119559
110526,119548
110559,119524
110553,119557
110553,119538
110542,119520
110553,119557
110510,119536
110507,119520
110557,119523
110514,119544
110507,119513
110521,119532
110495,119483
110525,119521
110497,119518
110494,119484
110459,119523
110476,119514
110440,119495
110465,119470
110492,119490
110485,119487
110483,119503
110456,119505
110438,119470
110465,119468
110455,119498
110466,119474
110466,119499
110460,119473
110494,119477
110457,119520
110466,119460
110493,119515
110462,119473
110500,119498
110477,119516
110497,119489
110505,119508
110492,119534
110480,119505
110521,119504
110541,119503
110491,119538
110546,119490
110569,119535
110515,119522
110544,119503
110561,119554
110548,119519
110567,119528
110542,119517
110571,119513
110554,119578
110571,119536
110591,119548
110583,119528
110596,119549
110574,119560
110586,119550
110579,119535
110591,119576
110584,119533
110613,119575
110586,119527
110619,119548
110579,119545
110608,119546
110581,119532
110619,119549
110637,119575
110617,119538
110614,119569
110646,119558
110615,119588
110589,119568
110636,119573
110631,119580
110640,119525
110638,119596
110621,119542
110655,119586
110624,119616
110629,119556
110637,119594
110618,119549
110644,119573
110633,119565
110653,119551
110625,119594
110636,119569
110620,119568
110620,119574
110657,119545
110641,119554
110616,119578
110649,119576
110633,119584
110610,119535
110658,119572
110623,119588
110627,119553
110656,119556
110601,119554
110652,119559
110637,119582
110650,119566
110667,119574
110658,119598
110645,119565
110641,119554
110669,119569
110616,119580
110644,119567
110661,119588
110631,119566
110633,119555
110650,119573
110675,119581
110644,119589
110671,119548
110649,119599
110643,119579
110666,119575
110662,119587
110689,119579
110680,119595
110651,119585
110671,119570
110703,119595
110644,119567
110708,119582
110661,119613
110674,119556
110699,119583
110663,119577
110678,119566
110661,119605
110698,119572
110680,119594
110703,119561
110695,119571
110690,119604
110728,119614
110708,119599
110733,119573
110727,119604
110686,119623
110701,119596
110740,119629
110688,119575
110707,119609
110690,119606
110733,119608
110722,119637
110710,119587
110752,119637
110705,119594
110720,119622
110718,119642
110724,119574
110741,119602
110710,119612
110739,119635
110712,119603
110738,119632
110719,119588
110745,119618
110739,119630
110724,119628
110749,119640
110754,119621
110767,119662
110735,119599
110785,119624
110770,119636
110787,119619
110765,119637
110732,119603
110758,119663
110748,119609
110805,119638
110739,119645
110779,119615
110753,119656
110781,119600
110768,119648
110750,119606
110789,119624
110763,119661
110785,119603
110776,119656
110769,119613
110783,119620
110768,119618
110764,119646
110801,119663
110770,119613
110827,119647
110769,119658
110804,119623
110816,119654
110783,119623
110840,119660
110780,119684
110832,119630
110829,119656
110803,119629
110868,119647
110796,119678
110838,119666
110819,119645
110851,119641
110824,119675
110803,119665
110783,119617
110746,119613
110739,119593
110736,119599
110663,119541
110677,119556
110573,119533
110576,119465
110576,119466
110453,119407
110475,119412
110439,119408
110420,119381
110399,119358
110359,119365
110359,119359
110328,119337
110354,119321
110351,119352
110328,119331
110337,119368
110334,119333
110387,119370
110369,119379
110398,119360
110394,119398
110425,119362
110409,119387
110428,119368
110425,119408
110418,119404
110451,119424
110454,119380
110490,119431
110473,119450
110472,119434
110534,119448
110491,119472
110517,119439
110581,119469
110514,119470
110542,119469
110558,119488
110548,119459
110559,119485
110519,119462
110574,119473
110569,119491
110565,119485
110575,119497
110529,119470
110584,119478
110567,119462
110592,119466
110577,119518
110542,119473
110596,119461
110582,119525
110570,119468
110637,119522
110603,119526
110621,119481
110618,119525
110632,119503
110639,119503
110643,119489
110644,119519
110609,119522
110674,119505
110626,119562
110623,119494
110658,119515
110654,119487
110648,119526
110619,119500
110668,119482
110611,119526
110625,119523
110633,119514
110621,119532
110606,119465
110621,119493
110607,119480
110637,119499
110598,119476
110596,119475
110611,119498
110613,119464
110596,119464
110582,119455
110620,119450
110579,119495
110601,119461
110629,119503
110601,119482
110627,119474
110619,119519
110626,119477
110630,119499
110623,119486
110645,119511
110660,119523
110643,119507
110638,119525
110644,119500
110681,119510
110645,119540
110692,119522
110678,119555
110680,119518
110723,119531
110689,119557
110700,119499
110734,119571
110713,119534
110709,119539
110730,119548
110737,119573
110707,119545
110749,119553
110729,119588
110732,119530
110795,119588
110723,119539
110739,119578
110732,119575
110767,119564
110752,119594
110774,119575
110738,119582
110733,119538
110780,119590
110748,119570
110730,119576
110725,119571
110789,119604
110757,119565
110769,119562
110754,119594
110784,119558
110775,119598
110769,119576
110794,119559
110779,119619
110774,119576
110822,119593
110761,119559
110772,119567
110765,119603
110795,119567
110779,119577
110801,119571
110751,119581
110801,119582
110816,119609
110773,119567
110804,119608
110762,119606
110798,119560
110789,119589
110770,119558
110807,119594
110765,119617
110785,119563
110802,119608
110762,119575
110801,119604
110808,119592
110803,119601
110788,119584
110801,119587
110754,119587
110802,119612
110780,119557
110777,119579
110763,119592
110796,119600
110795,119588
110795,119595
110768,119591
110798,119592
110800,119579
110808,119595
110780,119586
110786,119579
110805,119586
110783,119599
110814,119602
110739,119579
110809,119600
110771,119581
110816,119599
110760,119603
110801,119593
110801,119587
110798,119612
110811,119614
110788,119587
110808,119612
110790,119608
110849,119598
110811,119590
110795,119611
110773,119583
110831,119616
110805,119570
110800,119608
110811,119635
110799,119576
110821,119600
110801,119618
110821,119582
110810,119631
110786,119587
110837,119601
110797,119621
110821,119591
110833,119639
110811,119583
110816,119610
110807,119625
110801,119604
110830,119602
110815,119607
110799,119607
110850,119614
110834,119633
110828,119597
110834,119626
110839,119614
110853,119635
110841,119655
110837,119597
110859,119656
110834,119608
110883,119630
110851,119638
110824,119625
110860,119641
110878,119624
110851,119613
110879,119648
110843,119623
110865,119625
110848,119685
110858,119625
110868,119640
110846,119619
110867,119658
110835,119652
110852,119616
110864,119611
110830,119615
110805,119609
110770,119583
110761,119553
110710,119522
110734,119553
110635,119494
110624,119460
110574,119489
110515,119427
110508,119419
110469,119387
110464,119351
110434,119387
110413,119335
110431,119372
110392,119358
110403,119311
110388,119348
110376,119336
110380,119357
110389,119351
110355,119336
110427,119339
110400,119363
110397,119355
110410,119378
110396,119333
110418,119378
110425,119409
110480,119372
110446,119414
110437,119360
110515,119424
110473,119435
110493,119397
110485,119419
110488,119428
110527,119400
110539,119467
110513,119426
110538,119418
110511,119451
110575,119429
110545,119479
110523,119414
110597,119468
110549,119451
110582,119454
110571,119448
110586,119455
110574,119488
110596,119452
110575,119469
110585,119454
110576,119490
110594,119467
110598,119474
110606,119484
110605,119463
110600,119523
110588,119501
110657,119523
110613,119539
110612,119451
110643,119518
110607,119498
110640,119511
110601,119510
110622,119462
110603,119481
110622,119480
110598,119501
110627,119511
110563,119489
110593,119495
110577,119475
110557,119458
110571,119461
110586,119502
110557,119454
110575,119436
110580,119482
110555,119449
110581,119455
110551,119464
110549,119416
110542,119467
110552,119475
110567,119429
110525,119450
110516,119432
110542,119472
110541,119454
110564,119417
110549,119470
110537,119427
110597,119456
110528,119454
110604,119449
110605,119453
110590,119479
110594,119452
110627,119479
110589,119484
110615,119485
110608,119505
110628,119519
110613,119497
110638,119524
110606,119503
110632,119483
110656,119542
110624,119497
110650,119511
110649,119523
110664,119475
110640,119522
110623,119502
110701,119515
110635,119498
110660,119493
110667,119509
110671,119528
110650,119542
110661,119530
110707,119523
110661,119563
110649,119474
110711,119543
110667,119503
110697,119507
110683,119569
110658,119511
110705,119524
110682,119533
110695,119507
110689,119552
110693,119505
110703,119537
110688,119527
110686,119542
110720,119542
110695,119550
110717,119520
110714,119552
110697,119527
110706,119541
110683,119511
110726,119550
110701,119543
110684,119552
110709,119527
110704,119544
110676,119519
110685,119531
110701,119557
110736,119545
110696,119540
110688,119542
110701,119524
110702,119571
110673,119514
110723,119530
110672,119560
110685,119536
110723,119563
110692,119530
110706,119527
110687,119549
110706,119534
110727,119555
110679,119512
110723,119532
110704,119512
110693,119524
110679,119555
110688,119545
110715,119574
110680,119517
110734,119551
110698,119567
110734,119556
110739,119585
110710,119511
110726,119540
110717,119575
110731,119536
110738,119573
110694,119528
110735,119548
110720,119546
110738,119545
110705,119537
110723,119551
110739,119591
110693,119538
110789,119571
110716,119588
110717,119609
110713,119572
110734,119588
110726,119562
110765,119560
110728,119584
110708,119526
110777,119587
110726,119574
110756,119545
110741,119567
110752,119552
110725,119575
110738,119554
110795,119594
110737,119546
110763,119559
110756,119595
110753,119564
110773,119595
110759,119545
110813,119604
110740,119566
110757,119565
110746,119579
110763,119579
110771,119574
110771,119560
110790,119579
110751,119558
110807,119567
110774,119617
110782,119568
110801,119593
110733,119567
110779,119572
110779,119614
110792,119560
110795,119604
110779,119576
110802,119602
110770,119603
110784,119560
110786,119593
110799,119558
110798,119577
110788,119598
110791,119605
110791,119589
110789,119573
110765,119589
110764,119545
110774,119573
110749,119545
110720,119588
110701,119509
110679,119511
110622,119499
110606,119447
110569,119466
110537,119418
110500,119409
110450,119367
110394,119367
110385,119337
110365,119342
110324,119276
110314,119309
110280,119275
110300,119255
110274,119305
110247,119228
110265,119269
110251,119233
110268,119285
110275,119254
110254,119274
110263,119258
110259,119294
110291,119284
110307,119283
110278,119284
110331,119284
110312,119318
110338,119278
110358,119307
110311,119293
110370,119313
110347,119350
110355,119321
110391,119366
110367,119321
110382,119352
110380,119350
110403,119335
110388,119346
110385,119359
110401,119330
110379,119369
110388,119331
110426,119364
110379,119337
110393,119343
110427,119370
110393,119358
110414,119325
110412,119363
110397,119329
110452,119327
110423,119368
110415,119351
110459,119384
110433,119353
110468,119365
110437,119402
110458,119379
110508,119382
110460,119406
110508,119358
110493,119420
110474,119388
110525,119410
110472,119414
110534,119389
110491,119424
110486,119371
110529,119422
110494,119381
110477,119396
110470,119366
110477,119369
110450,119400
110450,119354
110460,119383
110425,119352
110430,119338
110420,119378
110404,119343
110418,119350
110389,119333
110417,119321
110384,119348
110381,119335
110438,119347
110383,119333
110392,119326
110392,119331
110393,119337
110401,119301
110413,119339
110401,119343
110438,119336
110399,119345
110397,119317
110434,119353
110394,119363
110433,119348
110443,119388
110429,119338
110446,119370
110424,119379
110488,119372
110464,119404
110470,119347
110456,119355
110441,119349
110484,119412
110458,119369
110494,119378
110470,119344
110501,119384
110473,119359
110493,119383
110470,119387
110511,119380
110467,119414
110496,119383
110491,119403
110491,119404
110494,119365
110534,119401
110523,119389
110510,119369
110478,119384
110494,119384
110514,119389
110479,119380
110514,119380
110514,119421
110488,119406
110540,119405
110474,119391
110499,119364
110490,119429
110498,119371
110519,119403
110496,119395
110528,119375
110521,119386
110529,119407
110510,119401
110529,119388
110523,119372
110477,119420
110480,119366
110551,119393
110485,119385
110517,119369
110519,119420
110499,119390
110539,119398
110517,119415
110515,119369
110498,119411
110511,119373
110497,119410
110518,119396
110529,119377
110488,119385
110541,119416
110519,119403
110510,119395
110557,119406
110524,119390
110531,119391
110531,119397
110514,119408
110530,119387
110526,119398
110520,119400
110566,119404
110497,119403
110545,119395
110550,119398
110506,119409
110540,119420
110545,119386
110532,119400
110549,119392
110524,119395
110540,119386
110543,119418
110522,119402
110574,119408
110544,119438
110577,119389
110579,119442
110534,119383
110586,119441
110563,119403
110570,119411
110558,119421
110609,119430
110577,119412
110556,119415
110626,119445
110597,119455
110587,119403
110607,119452
110580,119430
110592,119412
110598,119452
110581,119407
110594,119436
110580,119420
110632,119440
110599,119440
110601,119432
110590,119425
110596,119432
110628,119431
110626,119450
110587,119421
110634,119452
110599,119451
110636,119484
110611,119457
110594,119431
110634,119417
110638,119469
110593,119432
110663,119429
110616,119476
110611,119432
110649,119460
110637,119442
110666,119462
110690,119472
110618,119445
110673,119454
110662,119496
110650,119445
110664,119490
110630,119463
110669,119470
110656,119494
110634,119438
110707,119511
110665,119488
110692,119469
110688,119480
110673,119476
110701,119503
110702,119490
110691,119518
110718,119474
110714,119509
110692,119470
110721,119479
110653,119530
110705,119493
110735,119508
110675,119486
110700,119477
110693,119515
110674,119455
110665,119478
110609,119431
110628,119444
110555,119418
110511,119376
110488,119373
110472,119354
110386,119321
110363,119293
110350,119253
110325,119248
110295,119263
110246,119215
110260,119186
110222,119203
110193,119164
110208,119214
110171,119165
110210,119157
110171,119202
110210,119181
110192,119184
110239,119182
110198,119202
110262,119220
110241,119213
110297,119217
110271,119270
110302,119183
110306,119258
110292,119250
110330,119271
110321,119267
110363,119278
110389,119286
110362,119291
110413,119315
110396,119286
110382,119290
110406,119309
110417,119305
110388,119327
110393,119299
110422,119334
110393,119307
110450,119334
110415,119341
110407,119302
110418,119332
110402,119299
110418,119306
110392,119290
110418,119278
110412,119341
110420,119323
110399,119284
110414,119352
110455,119310
110429,119297
110440,119323
110467,119333
110433,119312
110494,119345
110451,119357
110469,119318
110485,119388
110456,119316
110492,119338
110460,119359
110486,119323
110473,119378
110459,119325
110443,119331
110479,119305
110464,119333
110468,119353
110433,119324
110432,119294
110443,119326
110399,119308
110412,119300
110390,119306
110405,119269
110368,119319
110345,119254
110405,119302
110385,119282
110366,119298
110397,119271
110376,119276
110406,119297
110406,119298
110342,119266
110392,119278
110392,119303
110388,119276
110416,119302
110408,119300
110464,119314
110430,119337
110433,119292
110446,119363
110423,119322
110453,119326
110437,119347
110478,119316
110459,119318
110474,119362
110464,119306
110471,119365
110455,119335
110466,119339
110452,119325
110487,119329
110486,119365
110471,119322
110510,119347
110469,119377
110468,119321
110511,119373
110470,119351
110501,119345
110483,119380
110508,119362
110489,119350
110483,119398
110478,119359
110500,119320
110505,119358
110473,119322
110510,119371
110466,119340
110539,119353
110489,119378
110473,119378
110477,119346
110522,119375
110472,119334
110518,119364
110512,119385
110506,119360
110500,119333
110518,119374
110542,119351
110504,119393
110517,119338
110549,119401
110490,119350
110528,119353
110516,119395
110520,119349
110523,119380
110497,119332
110542,119379
110481,119377
110511,119359
110513,119387
110506,119337
110520,119349
110486,119324
110525,119386
110505,119350
110504,119348
110510,119363
110491,119346
110555,119368
110509,119383
110518,119344
110538,119385
110491,119358
110541,119356
110517,119389
110516,119339
110537,119374
110517,119358
110522,119372
110506,119370
110526,119349
110526,119380
110519,119358
110575,119372
110524,119389
110547,119361
110541,119393
110555,119361
110540,119375
110561,119412
110525,119365
110548,119366
110565,119408
110540,119367
110565,119382
110560,119405
110544,119397
110585,119394
110568,119372
110595,119413
110564,119367
110579,119398
110549,119401
110590,119372
110598,119429
110555,119364
110616,119379
110583,119412
110573,119380
110587,119418
110585,119377
110612,119400
110601,119397
110609,119397
110591,119413
110613,119385
110571,119411
110626,119404
110609,119435
110607,119401
110631,119412
110591,119429
110632,119404
110612,119440
110592,119385
110643,119437
110598,119401
110633,119412
110635,119443
110613,119406
110628,119419
110609,119390
110630,119435
110611,119423
110632,119430
110610,119440
110630,119398
110637,119445
110623,119422
110638,119414
110643,119424
110647,119422
110657,119455
110644,119416
110655,119424
110611,119428
110661,119426
110660,119429
110658,119439
110654,119440
110651,119418
110666,119443
110631,119412
110664,119422
110613,119451
110612,119411
110649,119435
110573,119359
110586,119375
110522,119372
110517,119306
110468,119327
110421,119259
110377,119233
110335,119218
110295,119207
110239,119178
110237,119160
110196,119168
110156,119083
110162,119113
110116,119115
110160,119072
110133,119129
110107,119059
110154,119093
110104,119120
110128,119082
110142,119129
110115,119082
110148,119107
110150,119114
110177,119155
110171,119146
110197,119117
110244,119168
110191,119192
110254,119159
110225,119154
110243,119203
110220,119170
110279,119154
110252,119205
110251,119168
110313,119214
110271,119203
110317,119198
110298,119217
110306,119203
110289,119219
110301,119217
110323,119194
110339,119225
110330,119245
110338,119206
110343,119247
110320,119210
110377,119220
110346,119253
110374,119217
110383,119256
110379,119219
110366,119226
110397,119228
110414,119267
110392,119258
110399,119260
110404,119283
110399,119282
110425,119260
110432,119300
110394,119260
110443,119272
110398,119300
110435,119233
110442,119268
110357,119249
110406,119258
110390,119273
110372,119214
110379,119248
110340,119211
110369,119240
110355,119234
110366,119219
110334,119224
110341,119177
110308,119208
110338,119182
110297,119212
110280,119175
110288,119210
110277,119185
110306,119160
110291,119200
110278,119170
110326,119181
110255,119186
110308,119178
110296,119205
110325,119194
110324,119183
110331,119188
110330,119214
110293,119185
110323,119185
110350,119237
110326,119209
110343,119217
110326,119221
110377,119201
110351,119266
110357,119201
110411,119246
110381,119202
110401,119238
110388,119262
110423,119251
110368,119261
110369,119263
110412,119244
110404,119253
110423,119279
110414,119222
110417,119269
110409,119272
110457,119251
110457,119284
110430,119223
110470,119290
110414,119306
110449,119250
110447,119296
110447,119238
110437,119281
110427,119254
110462,119311
110473,119295
110476,119319
110429,119264
110458,119260
110458,119317
110460,119246
110482,119289
110453,119286
110458,119242
110452,119313
110418,119269
110504,119324
110449,119281
110472,119273
110471,119278
110464,119278
110476,119299
110473,119276
110457,119262
110465,119330
110440,119274
110484,119276
110455,119284
110473,119268
110475,119298
110481,119296
110443,119266
110465,119302
110444,119293
110471,119300
110447,119301
110477,119260
110476,119306
110447,119280
110483,119283
110483,119290
110487,119288
110465,119272
110476,119291
110484,119288
110455,119280
110496,119303
110473,119294
110470,119305
110481,119300
110468,119287
110494,119291
110466,119289
110496,119318
110502,119302
110505,119321
110513,119297
110502,119309
110519,119301
110516,119306
110524,119331
110516,119341
110507,119312
110566,119337
110551,119347
110537,119291
110533,119332
110514,119306
110592,119331
110530,119348
110543,119293
110559,119319
110571,119350
110535,119326
110559,119353
110517,119314
110587,119331
110545,119348
110579,119331
110550,119357
110564,119306
110529,119342
110562,119332
110548,119336
110547,119299
110574,119353
110541,119293
110578,119314
110553,119321
110542,119288
110591,119332
110549,119331
110559,119316
110558,119351
110547,119310
110575,119343
110540,119333
110581,119318
110568,119365
110556,119332
110626,119354
110551,119339
110596,119322
110581,119350
110584,119314
110584,119347
110566,119327
110591,119340
110556,119337
110570,119338
110605,119348
110580,119351
110606,119326
110599,119384
110571,119319
110625,119338
110592,119391
110579,119332
110604,119368
110594,119335
110620,119355
110597,119357
110605,119358
110600,119353
110648,119370
110591,119364
110593,119360
110609,119357
110642,119374
110593,119381
110620,119318
110610,119334
110564,119339
110554,119280
110547,119293
110491,119310
110459,119253
110473,119259
110376,119199
110361,119172
110278,119156
110244,119128
110198,119081
110177,119077
110152,119070
110117,118988
110069,119032
110021,118994
110062,118995
109987,119001
110009,118948
109990,118992
109976,118947
109989,118994
109960,118970
110033,118969
110021,118974
110004,118987
110019,118978
110023,118957
110018,118996
110037,118985
110031,119016
110072,118999
110092,119031
110072,119011
110122,119025
110088,119058
110110,119002
110148,119062
110120,119031
110124,119043
110156,119092
110179,119027
110150,119062
110159,119083
110169,119073
110176,119055
110162,119067
110168,119048
110163,119078
110197,119079
110182,119108
110147,119048
110207,119065
110164,119078
110162,119056
110203,119097
110161,119055
110195,119066
110179,119128
110205,119074
110210,119099
110240,119121
110209,119078
110241,119092
110231,119122
110249,119098
110254,119136
110214,119091
110255,119109
110231,119141
110241,119103
110263,119128
110230,119080
110215,119123
110253,119120
110222,119102
110208,119094
110226,119102
110206,119115
110229,119089
110230,119091
110240,119093
110167,119068
110225,119099
110207,119122
110199,119055
110194,119093
110172,119068
110209,119074
110189,119114
110174,119052
110208,119091
110143,119049
110192,119083
110201,119066
110221,119097
110200,119087
110198,119079
110199,119082
110228,119081
110237,119140
110231,119111
110275,119112
110255,119150
110259,119119
110295,119143
110276,119154
110282,119111
110331,119165
110286,119118
110318,119153
110328,119159
110328,119154
110318,119144
110366,119153
110343,119183
110329,119157
110368,119179
110332,119175
110353,119148
110348,119187
110323,119149
110344,119181
110337,119157
110377,119156
110329,119168
110350,119153
110331,119168
110345,119157
110334,119187
110347,119186
110355,119169
110369,119150
110369,119178
110328,119129
110391,119181
110355,119194
110368,119160
110389,119190
110352,119149
110393,119174
110364,119183
110406,119183
110388,119180
110401,119170
110384,119202
110401,119199
110410,119147
110413,119213
110397,119185
110413,119167
110398,119170
110395,119217
110372,119212
110419,119200
110401,119207
110403,119153
110424,119201
110390,119198
110440,119184
110392,119226
110370,119167
110421,119221
110407,119190
110373,119200
110377,119192
110425,119194
110407,119178
110423,119186
110381,119167
110431,119190
110403,119215
110426,119172
110432,119176
110429,119195
110414,119179
110443,119183
110424,119221
110433,119179
110486,119225
110465,119225
110471,119235
110425,119233
110480,119195
110461,119224
110447,119216
110497,119237
110425,119217
110494,119207
110477,119263
110460,119204
110504,119226
110455,119214
110476,119206
110477,119264
110485,119205
110500,119243
110480,119211
110503,119215
110502,119234
110501,119255
110488,119213
110498,119200
110522,119268
110468,119211
110504,119224
110503,119267
110495,119226
110526,119242
110495,119249
110550,119222
110502,119255
110497,119209
110535,119267
110526,119272
