11111
0
0
0
0
0
0
0
0
0
0
0
0
0
0
0
0
0
0
0
0
0
0
0
0
0
0
0
0
0
0
0
0
0
0
0
0
0
0
0
0
0
0
0
0
0
0
0
0
0
0
0
0
0
0
0
0
0
0
0
0
0
0
0
0
0
0
0
0
0
0
0
0
0
0
0
0
0
0
0
0
0
0
0
0
0
0
0
0
0
0
0
0
0
0
0
0
0
0
0
0
0
0
0
0
0
0
0
0
0
0
0
0
0
0
0
0
0
0
0
0
0
0
0
0
0
0
0
0
0
0
0
0
0
0
0
0
0
0
0
0
0
0
0
0
0
0
0
0
0
0
0
0
0
0
0
0
0
0
0
0
0
0
0
0
0
0
0
0
0
0
0
0
0
0
0
0
0
0
0
0
0
0
0
0
0
0
0
0
0
0
0
0
0
0
0
0
0
0
0
0
0
0
0
0
0
0
0
0
0
0
0
0
0
0
0
0
0
0
0
0
0
0
0
0
0
0
0
0
0
0
0
0
0
0
0
0
0
0
0
0
0
0
0
0
0
0
0
0
0
0
0
0
0
0
0
0
0
0
0
0
0
0
0
0
0
0
0
0
0
0
0
0
0
0
0
0
0
0
0
0
0
0
0
0
0
0
0
0
0
0
0
0
0
0
0
0
0
0
0
0
0
0
0
0
0
0
0
0
0
0
0
0
0
0
0
0
0
0
0
0
0
0
0
0
0
0
0
0
0
0
0
0
0
0
0
0
0
0
0
0
0
0
0
0
0
0
0
0
0
0
0
0
0
0
0
0
0
0
0
0
0
0
0
0
0
0
0
0
0
0
0
0
0
0
0
0
0
0
0
0
0
0
0
0
0
0
0
0
0
0
0
0
0
0
0
0
0
0
0
0
0
0
0
0
0
0
0
0
0
0
0
0
0
0
0
0
0
0
0
0
0
0
0
0
0
0
0
0
0
0
0
0
0
0
0
0
0
0
0
0
0
0
0
0
0
0
0
0
0
0
0
0
0
0
0
0
0
0
0
0
0
0
0
0
0
0
0
0
0
0
0
0
0
0
0
0
0
0
0
0
0
0
0
0
0
0
0
0
0
0
0
0
0
0
0
0
0
0
0
0
0
0
0
0
0
0
0
0
0
0
0
0
0
0
0
0
0
0
0
0
0
0
0
0
0
0
0
0
0
0
0
0
0
0
0
0
0
0
0
0
0
0
0
0
0
0
0
0
0
0
0
0
0
0
0
0
0
0
0
0
0
0
0
0
0
0
0
0
0
0
0
0
0
0
0
0
0
0
0
0
0
0
0
0
0
0
0
0
0
0
0
0
0
0
0
0
0
0
0
0
0
0
0
0
0
0
0
0
0
0
0
0
0
0
0
0
0
0
0
0
0
0
0
0
0
0
0
0
0
0
0
0
0
0
0
0
0
0
0
0
0
0
0
0
0
0
0
0
0
0
0
0
0
0
0
0
0
0
0
0
0
0
0
0
0
0
0
0
0
0
0
0
0
0
0
0
0
0
0
0
0
0
0
0
0
0
0
0
0
0
0
0
0
0
0
0
0
0
0
0
0
0
0
0
0
0
0
0
0
0
0
0
0
0
0
0
0
0
0
0
0
0
0
0
0
0
0
0
0
0
0
0
0
0
0
0
0
0
0
0
0
0
0
0
0
0
0
0
0
0
0
0
0
0
0
0
0
0
0
0
0
0
0
0
0
0
0
0
0
0
0
0
0
0
0
0
0
0
0
0
0
0
0
0
0
0
0
0
0
0
0
0
0
0
0
0
0
0
0
0
0
0
0
0
0
0
0
0
0
0
0
0
0
0
0
0
0
0
0
0
0
0
0
0
0
0
0
0
0
0
0
0
0
0
0
0
0
0
0
0
0
0
0
0
0
0
0
0
0
0
0
0
0
0
0
0
0
0
0
0
0
0
0
0
0
0
0
0
0
0
0
0
0
0
0
0
0
0
0
0
0
0
0
0
0
0
0
0
0
0
0
0
0
0
0
0
0
0
0
0
0
0
0
0
0
0
0
0
0
0
0
0
0
0
0
0
0
0
0
0
0
0
0
0
0
0
0
0
0
0
0
0
0
0
0
0
0
0
0
0
0
0
0
0
0
0
0
0
0
0
0
0
0
0
0
0
0
0
0
0
0
0
0
0
0
0
0
0
0
0
0
0
0
0
0
0
0
0
0
0
0
0
0
0
0
0
0
0
0
0
0
0
0
0
0
0
0
0
0
0
0
0
0
0
0
0
0
0
0
0
0
0
0
0
0
0
0
0
0
0
0
0
0
0
0
0
0
0
0
0
0
0
0
0
0
0
0
0
0
0
0
0
0
0
0
0
0
0
0
0
0
0
0
0
0
0
0
0
0
0
0
0
0
0
0
0
0
0
0
0
0
0
0
0
0
0
0
0
0
0
0
0
0
0
0
0
0
0
0
0
0
0
0
0
0
0
0
0
0
0
0
0
0
0
0
0
0
0
0
0
0
0
0
0
0
0
0
0
0
0
0
0
0
0
0
0
0
0
0
0
0
0
0
0
0
0
0
0
0
0
0
0
0
0
0
0
0
0
0
0
0
0
0
0
0
0
0
0
0
0
0
0
0
0
0
0
0
0
0
0
0
0
0
0
0
0
0
0
0
0
0
0
0
0
0
0
0
0
0
0
0
0
0
0
0
0
0
0
0
0
0
0
0
0
0
0
0
0
0
0
0
0
0
0
0
0
0
0
0
0
0
0
0
0
0
0
0
0
0
0
0
0
0
0
0
0
0
0
0
0
0
0
0
0
0
0
0
0
0
0
0
0
0
0
0
0
0
0
0
0
0
0
0
0
0
0
0
0
0
0
0
0
0
0
0
0
0
0
0
0
0
0
0
0
0
0
0
0
0
0
0
0
0
0
0
0
0
0
0
0
0
0
0
0
0
0
0
0
0
0
0
0
0
0
0
0
0
0
0
0
0
0
0
0
0
0
0
0
0
0
0
0
0
0
0
0
0
0
0
0
0
0
0
0
0
0
0
0
0
0
0
0
0
0
0
0
0
0
0
0
0
0
0
0
0
0
0
0
0
0
0
0
0
0
0
0
0
0
0
0
0
0
0
0
0
0
0
0
0
0
0
0
0
0
0
0
0
0
0
0
0
0
0
0
0
0
0
0
0
0
0
0
0
0
0
0
0
0
0
0
0
0
0
0
0
0
0
0
0
0
0
0
0
0
0
0
0
0
0
0
0
0
0
0
0
0
0
0
0
0
0
0
0
0
0
0
0
0
0
0
0
0
0
0
0
0
0
0
0
0
0
0
0
0
0
0
0
0
0
0
0
0
0
0
0
0
0
0
0
0
0
0
0
0
0
0
0
0
0
0
0
0
0
0
0
0
0
0
0
0
0
0
0
0
0
0
0
0
0
0
0
0
0
0
0
0
0
0
0
0
0
0
0
0
0
0
0
0
0
0
0
0
0
0
0
0
0
0
0
0
0
0
0
0
0
0
0
0
0
0
0
0
0
0
0
0
0
0
0
0
0
0
0
0
0
0
0
0
0
0
0
0
0
0
0
0
0
0
0
0
0
0
0
0
0
0
0
0
0
0
0
0
0
0
0
0
0
0
0
0
0
0
0
0
0
0
0
0
0
0
0
0
0
0
0
0
0
0
0
0
0
0
0
0
0
0
0
0
0
0
0
0
0
0
0
0
0
0
0
0
0
0
0
0
0
0
0
0
0
0
0
0
0
0
0
0
0
0
0
0
0
0
0
0
0
0
0
0
0
0
0
0
0
0
0
0
0
0
0
0
0
0
0
0
0
0
0
0
0
0
0
0
0
0
0
0
0
0
0
0
0
0
0
0
0
0
0
0
0
0
0
0
0
0
0
0
0
0
0
0
0
0
0
0
0
0
0
0
0
0
0
0
0
0
0
0
0
0
0
0
0
0
0
0
0
0
0
0
0
0
0
0
0
0
0
0
0
0
0
0
0
0
0
0
0
0
0
0
0
0
0
0
0
0
0
0
0
0
0
0
0
0
0
0
0
0
0
0
0
0
0
0
0
0
0
0
0
0
0
0
0
0
0
0
0
0
0
0
0
0
0
0
0
0
0
0
0
0
0
0
0
0
0
0
0
0
0
0
0
0
0
0
0
0
0
0
0
0
0
0
0
0
0
0
0
0
0
0
0
0
0
0
0
0
0
0
0
0
0
0
0
0
0
0
0
0
0
0
0
0
0
0
0
0
0
0
0
0
0
0
0
0
0
0
0
0
0
0
0
0
0
0
0
0
0
0
0
0
0
0
0
0
0
0
0
0
0
0
0
0
0
0
0
0
0
0
0
0
0
0
0
0
0
0
0
0
0
0
0
0
0
0
0
0
0
0
0
0
0
0
0
0
0
0
0
0
0
0
0
0
0
0
0
0
0
0
0
0
0
0
0
0
0
0
0
0
0
0
0
0
0
0
0
0
0
0
0
0
0
0
0
0
0
0
0
0
0
0
0
0
0
0
0
0
0
0
0
0
0
0
0
0
0
0
0
0
0
0
0
0
0
0
0
0
0
0
0
0
0
0
0
0
0
0
0
0
0
0
0
0
0
0
0
0
0
0
0
0
0
0
0
0
0
0
0
0
0
0
0
0
0
0
0
0
0
0
0
0
0
0
0
0
0
0
0
0
0
0
0
0
0
0
0
0
0
0
0
0
0
0
0
0
0
0
0
0
0
0
0
0
0
0
0
0
0
0
0
0
0
0
0
0
0
0
0
0
0
0
0
0
0
0
0
0
0
0
0
0
0
0
0
0
0
0
0
0
0
0
0
0
0
0
0
0
0
0
0
0
0
0
0
0
0
0
0
0
0
0
0
0
0
0
0
-1
0
-1
0
-1
0
-1
0
-2
1
-5
-22
-20
-24
-27
-31
-36
-40
-45
-51
-58
-62
-67
-73
-79
-85
-90
-96
-103
-106
-116
-121
-125
-133
-138
-144
-149
-155
-162
-167
-172
-178
-184
-191
-196
-201
-208
-214
-219
-226
-231
-236
-243
-248
-252
-260
-266
-272
-278
-280
-288
-293
-299
-304
-310
-314
-320
-325
-333
-336
-342
-347
-350
-357
-363
-368
-373
-379
-384
-390
-395
-398
-403
-410
-416
-422
-428
-431
-435
-442
-447
-452
-457
-462
-469
-474
-477
-480
-488
-491
-497
-502
-505
-514
-518
-521
-527
-533
-535
-542
-546
-552
-554
-562
-566
-571
-575
-580
-585
-589
-594
-599
-604
-608
-613
-617
-621
-626
-630
-634
-638
-645
-650
-654
-659
-663
-669
-672
-677
-680
-686
-690
-692
-697
-704
-708
-711
-716
-720
-727
-728
-733
-738
-742
-747
-749
-755
-759
-764
-767
-770
-777
-780
-783
-788
-793
-797
-800
-806
-810
-813
-816
-821
-827
-828
-833
-838
-842
-846
-850
-854
-859
-862
-868
-870
-873
-877
-882
-885
-889
-892
-898
-900
-903
-909
-910
-914
-918
-924
-927
-930
-934
-939
-941
-943
-950
-952
-956
-959
-962
-966
-971
-976
-977
-979
-984
-988
-991
-997
-998
-1001
-1005
-1008
-1013
-1016
-1018
-1022
-1026
-1030
-1033
-1038
-1040
-1043
-1047
-1049
-1053
-1056
-1062
-1063
-1066
-1071
-1074
-1076
-1080
-1083
-1086
-1090
-1094
-1097
-1099
-1103
-1107
-1110
-1114
-1115
-1121
-1121
-1123
-1129
-1130
-1134
-1138
-1142
-1145
-1148
-1151
-1153
-1156
-1159
-1162
-1167
-1169
-1174
-1176
-1175
-1179
-1183
-1186
-1187
-1191
-1195
-1197
-1201
-1203
-1207
-1210
-1212
-1216
-1217
-1218
-1224
-1225
-1227
-1229
-1233
-1237
-1240
-1242
-1245
-1247
-1250
-1255
-1257
-1258
-1262
-1264
-1267
-1270
-1273
-1277
-1279
-1281
-1283
-1286
-1288
-1291
-1293
-1296
-1299
-1302
-1305
-1305
-1308
-1312
-1314
-1316
-1318
-1322
-1325
-1327
-1328
-1331
-1333KãˆÈ¦Aí0šê6<Æ:Ú|WÎÃ0NéGçwò´1Xûäº
-1337
-1340
-1339
-1343
-1346
-1347
-1350
-1353
-1356
-1357
-1361
-1363
-1366
-1365
-1370
-1371
-1374
-1377
-1381
-1380
-1383
-1386
-1388
-1389
-1393
-1394
-1398
-1399
-1400
-1402
-1404
-1408
-1410
-1413
-1413
-1417
-1418
-1422
-1423
-1423
-1427
-1429
-1430
-1434
-1434
-1437
-1440
-1442
-1444
-1445
-1449
-1451
-1452
-1454
-1458
-1457
-1461
-1462
-1465
-1467
-1468
-1469
-1472
-1476
-1477
-1477
-1480
-1481
-1484
-1482
-1489
-1491
-1490
-1493
-1497
-1498
-1498
-1500
-1503
-1506
-1505
-1509
-1511
-1512
-1512
-1516
-1517
-1517
-1520
-1523
-1523
-1525
-1528
-1530
-1530
-1532@
-1534
-1534
-1537
-1539
-1539
-1543
-1544
-1545
-1547
-1549
-1550
-1553
-1553
-1556
-1557
-1560
-1560
-1561
-1565
-1566
-1568
-1567
-1570
-1572
-1574
-1574
-1577
-1577
-1578
-1582
-1582
-1583
-1586
-1588
-1588
-1589
-1592
-1593
-1594
-1596
-1596
-1598
-1601
-1603
-1604
-1605
-1606
-1608
-1610
-1610
-1611
-1612
-1616
-1617
-1618
-1619
-1619
-1620
-1623
-1622
-1626
-1628
-1627
-1627
-1629
-1632
-1633
-1634
-1636
-1636
-1639
-1641
-1640
-1642
-1641
-1645
-1645
-1648
-1649
-1650
-1652
-1651
-1653
-1654
-1654
-1656
-1657
-1658
-1660
-1662
-1662
-1662
-1664
-1667
-1666
-1669@
-1670
-1669
-1671
-1673
-1673
-1674
-1673
-1675
-1679
-1681
-1681
-1681
-1684
-1685
-1686
-1686
-1687
-1689
-1690
-1690
-1692
-1694
-1694
-1693
-1697
-1697
-1698
-1699
-1699
-1700
-1702
-1704
-1702
-1706
-1708
-1705
-1708
-1709
-1709
-1710
-1712
-1712
-1710
-1712
-1715
-1715
-1715
-1716
-1718
-1718
-1720
-1720
-1722
-1723
-1723
-1723
-1725
-1726
-1727
-1730
-1729
-1728
-1731
-1731
-1731
-1733
-1735
-1735
-1735
-1735
-1737
-1736
-1739
-1739
-1738
-1740
-1740
-1741
-1743
-1743
-1745
-1744
-1746
-1747
-1748
-1750
-1749
-1749
-1751
-1750
-1752
-1754
-1753
-1754
-1753
-1754@
-1754
-1757
-1758
-1759
-1759
-1760
-1761
-1763
-1761
-1762
-1764
-1766
-1765
-1763
-1765
-1765
-1765
-1766
-1768
-1769
-1769
-1769
-1770
-1771
-1771
-1770
-1771
-1772
-1774
-1774
-1773
-1776
-1774
-1775
-1776
-1775
-1777
-1778
-1779
-1779
-1780
-1780
-1778
-1781
-1781
-1783
-1782
-1782
-1784
-1784
-1783
-1783
-1788
-1784
-1786
-1787
-1788
-1787
-1789
-1790
-1790
-1788
-1789
-1789
-1790
-1789
-1791
-1794
-1793
-1793
-1792
-1793
-1793
-1793
-1793
-1795
-1795
-1795
-1797
-1796
-1796
-1796
-1797
-1798
-1798
-1799
-1798
-1799
-1800
-1798
-1800
-1799
-1801
-1802
-1801
-1800@
-1802
-1801
-1803
-1802
-1803
-1801
-1802
-1803
-1803
-1803
-1804
-1804
-1803
-1802
-1804
-1805
-1805
-1807
-1804
-1805
-1807
-1807
-1807
-1807
-1808
-1808
-1808
-1807
-1808
-1809
-1808
-1808
-1809
-1809
-1810
-1809
-1810
-1810
-1810
-1810
-1811
-1810
-1809
-1810
-1811
-1812
-1811
-1812
-1810
-1811
-1812
-1811
-1810
-1811
-1811
-1811
-1810
-1812
-1814
-1812
-1812
-1814
-1814
-1814
-1812
-1813
-1814
-1813
-1814
-1813
-1814
-1814
-1813
-1813
-1813
-1815
-1814
-1814
-1813
-1814
-1815
-1815
-1813
-1816
-1813
-1814
-1814
-1814
-1813
-1814
-1814
-1815
-1815
-1814
-1815
-1815@
-1814
-1816
-1813
-1815
-1815
-1816
-1815
-1816
-1816
-1815
-1814
-1816
-1815
-1813
-1815
-1816
-1815
-1814
-1815
-1815
-1815
-1814
-1815
-1813
-1814
-1813
-1813
-1813
-1814
-1814
-1814
-1813
-1813
-1812
-1815
-1814
-1813
-1813
-1814
-1814
-1813
-1811
-1813
-1814
-1812
-1812
-1812
-1811
-1811
-1814
-1814
-1812
-1812
-1813
-1813
-1811
-1811
-1813
-1811
-1809
-1810
-1812
-1809
-1810
-1811
-1809
-1809
-1810
-1809
-1811
-1811
-1810
-1809
-1809
-1810
-1808
-1809
-1809
-1807
-1808
-1807
-1808
-1807
-1808
-1806
-1808
-1807
-1808
-1805
-1805
-1806
-1803
-1805
-1805
-1804
-1805@
-1804
-1803
-1804
-1803
-1803
-1803
-1803
-1802
-1803
-1800
-1801
-1800
-1802
-1802
-1800
-1801
-1801
-1801
-1800
-1800
-1799
-1797
-1799
-1798
-1798
-1797
-1797
-1798
-1797
-1796
-1796
-1795
-1796
-1794
-1795
-1794
-1794
-1792
-1792
-1792
-1793
-1793
-1793
-1793
-1791
-1792
-1790
-1792
-1791
-1788
-1791
-1790
-1788
-1790
-1788
-1788
-1788
-1787
-1788
-1787
-1786
-1786
-1785
-1784
-1786
-1786
-1784
-1784
-1785
-1784
-1782
-1783
-1781
-1784
-1781
-1782
-1779
-1780
-1780
-1778
-1780
-1777
-1779
-1777
-1778
-1778
-1776
-1776
-1775
-1775
-1776
-1775
-1775
-1774
-1773
-1773@
-1772
-1772
-1771
-1771
-1771
-1771
-1772
-1770
-1770
-1769
-1769
-1768
-1766
-1767
-1767
-1767
-1765
-1766
-1767
-1765
-1765
-1765
-1764
-1763
-1762
-1763
-1762
-1762
-1763
-1761
-1761
-1761
-1760
-1759
-1759
-1759
-1758
-1759
-1756
-1754
-1756
-1754
-1755
-1755
-1753
-1754
-1751
-1752
-1751
-1751
-1750
-1749
-1750
-1750
-1749
-1749
-1748
-1748
-1749
-1746
-1745
-1746
-1746
-1744
-1744
-1745
-1744
-1745
-1742
-1741
-1742
-1741
-1741
-1739
-1739
-1739
-1738
-1736
-1736
-1736
-1733
-1735
-1736
-1735
-1735
-1733
-1731
-1732
-1731
-1730
-1730
-1730
-1729
-1729
-1729
-1728@
-1728
-1726
-1726
-1725
-1725
-1725
-1724
-1723
-1721
-1723
-1721
-1721
-1721
-1720
-1721
-1719
-1718
-1718
-1720
-1718
-1717
-1716
-1715
-1715
-1715
-1716
-1713
-1715
-1713
-1712
-1711
-1711
-1712
-1710
-1710
-1706
-1708
-1708
-1707
-1705
-1706
-1703
-1704
-1703
-1703
-1702
-1701
-1702
-1699
-1699
-1698
-1700
-1700
-1699
-1696
-1696
-1697
-1698
-1694
-1695
-1693
-1694
-1694
-1693
-1694
-1690
-1691
-1690
-1690
-1687
-1689
-1688
-1685
-1687
-1686
-1685
-1684
-1683
-1682
-1682
-1681
-1682
-1680
-1680
-1679
-1679
-1679
-1676
-1677
-1677
-1675
-1674
-1675
-1675
-1672
-1674@
-1672
-1671
-1671
-1672
-1669
-1668
-1669
-1668
-1667
-1665
-1666
-1665
-1664
-1663
-1663
-1663
-1664
-1660
-1660
-1659
-1659
-1658
-1657
-1657
-1657
-1658
-1657
-1655
-1654
-1652
-1653
-1653
-1652
-1650
-1649
-1649
-1648
-1647
-1648
-1647
-1647
-1644
-1646
-1646
-1643
-1642
-1643
-1642
-1640
-1641
-1640
-1639
-1640
-1638
-1638
-1637
-1636
-1636
-1635
-1635
-1632
-1630
-1632
-1632
-1631
-1630
-1629
-1629
-1628
-1625
-1626
-1624
-1625
-1624
-1622
-1624
-1621
-1623
-1622
-1623
-1620
-1618
-1618
-1618
-1616
-1617
-1617
-1615
-1615
-1614
-1612
-1614
-1612
-1611
-1610
-1609@
-1609
-1608
-1608
-1608
-1605
-1606
-1603
-1604
-1604
-1602
-1602
-1604
-1600
-1601
-1600
-1599
-1597
-1599
-1596
-1596
-1593
-1594
-1593
-1594
-1592
-1591
-1590
-1591
-1589
-1588
-1589
-1587
-1588
-1584
-1583
-1585
-1583
-1582
-1582
-1581
-1578
-1579
-1580
-1578
-1577
-1577
-1576
-1575
-1574
-1574
-1574
-1572
-1572
-1571
-1571
-1569
-1568
-1567
-1568
-1567
-1564
-1565
-1564
-1564
-1563
-1561
-1562
-1561
-1559
-1559
-1560
-1559
-1557
-1556
-1556
-1555
-1553
-1554
-1553
-1553
-1550
-1550
-1550
-1549
-1548
-1548
-1547
-1547
-1545
-1546
-1545
-1543
-1544
-1542
-1541
-1540@
-1540
-1539
-1540
-1539
-1538
-1538
-1535
-1536
-1534
-1534
-1534
-1531
-1531
-1531
-1529
-1529
-1527
-1526
-1526
-1524
-1525
-1524
-1524
-1523
-1521
-1522
-1519
-1519
-1516
-1518
-1517
-1517
-1515
-1515
-1513
-1511
-1512
-1512
-1510
-1510
-1508
-1508
-1508
-1505
-1506
-1506
-1504
-1502
-1501
-1502
-1501
-1502
-1501
-1499
-1499
-1500
-1497
-1495
-1496
-1496
-1492
-1495
-1493
-1492
-1489
-1490
-1489
-1489
-1486
-1489
-1487
-1486
-1484
-1485
-1483
-1482
-1483
-1480
-1481
-1479
-1479
-1479
-1477
-1477
-1474
-1475
-1474
-1473
-1473
-1472
-1470
-1471
-1469
-1468
-1469
-1468@
-1466
-1466
-1466
-1466
-1462
-1461
-1459
-1462
-1461
-1459
-1460
-1456
-1458
-1457
-1456
-1454
-1455
-1454
-1453
-1453
-1449
-1451
-1450
-1448
-1447
-1446
-1449
-1444
-1445
-1444
-1443
-1442
-1441
-1440
-1440
-1441
-1438
-1437
-1436
-1436
-1435
-1433
-1434
-1433
-1432
-1431
-1430
-1431
-1430
-1429
-1429
-1426
-1427
-1427
-1425
-1425
-1422
-1422
-1422
-1419
-1420
-1420
-1418
-1418
-1416
-1417
-1415
-1415
-1413
-1413
-1413
-1411
-1410
-1410
-1411
-1409
-1408
-1407
-1406
-1404
-1404
-1403
-1403
-1403
-1401
-1400
-1400
-1399
-1398
-1396
-1395
-1397
-1395
-1394
-1393
-1393@
-1392
-1390
-1390
-1389
-1388
-1387
-1389
-1388
-1386
-1384
-1384
-1382
-1383
-1382
-1381
-1380
-1380
-1378
-1378
-1376
-1376
-1375
-1376
-1373
-1374
-1373
-1373
-1372
-1371
-1368
-1370
-1367
-1366
-1366
-1365
-1365
-1364
-1362
-1361
-1362
-1360
-1361
-1358
-1359
-1357
-1357
-1355
-1358
-1356
-1355
-1353
-1352
-1352
-1353
-1349
-1349
-1347
-1347
-1347
-1346
-1345
-1343
-1344
-1342
-1343
-1343
-1341
-1339
-1340
-1339
-1338
-1334
-1338
-1336
-1333
-1334
-1333
-1333
-1332
-1332
-1329
-1330
-1330
-1326
-1327
-1326
-1325
-1324
-1323
-1322
-1321
-1321
-1321
-1322
-1319
-1320@
-1318
-1316
-1316
-1317
-1315
-1315
-1314
-1313
-1313
-1310
-1311
-1308
-1308
-1306
-1307
-1304
-1306
-1304
-1302
-1304
-1300
-1303
-1301
-1299
-1300
-1299
-1297
-1298
-1296
-1296
-1293
-1294
-1293
-1293
-1293
-1292
-1289
-1288
-1286
-1286
-1285
-1285
-1284
-1284
-1284
-1282
-1282
-1280
-1280
-1280
-1279
-1278
-1276
-1275
-1274
-1270
-1274
-1271
-1269
-1271
-1271
-1270
-1269
-1270
-1267
-1266
-1266
-1264
-1263
-1264
-1262
-1262
-1261
-1262
-1261
-1258
-1256
-1257
-1259
-1256
-1254
-1254
-1253
-1252
-1251
-1252
-1249
-1251
-1248
-1249
-1248
-1247
-1246
-1244
-1245
-1244@
-1243
-1243
-1242
-1241
-1240
-1240
-1240
-1239
-1238
-1236
-1236
-1235
-1235
-1233
-1235
-1230
-1230
-1229
-1228
-1231
-1228
-1227
-1227
-1226
-1223
-1225
-1225
-1221
-1222
-1220
-1222
-1218
-1219
-1218
-1217
-1215
-1215
-1217
-1214
-1214
-1214
-1209
-1211
-1211
-1211
-1206
-1208
-1206
-1207
-1206
-1206
-1205
-1203
-1203
-1203
-1203
-1199
-1201
-1199
-1200
-1196
-1197
-1196
-1196
-1194
-1194
-1194
-1192
-1193
-1189
-1189
-1188
-1188
-1188
-1187
-1186
-1186
-1185
-1183
-1184
-1182
-1180
-1180
-1181
-1180
-1179
-1179
-1177
-1177
-1175
-1175
-1175
-1174
-1174
-1172
-1172@
-1170
-1170
-1170
-1170
-1166
-1168
-1168
-1165
-1166
-1165
-1163
-1164
-1163
-1162
-1160
-1160
-1159
-1159
-1157
-1158
-1156
-1154
-1155
-1153
-1153
-1151
-1151
-1152
-1152
-1150
-1148
-1149
-1146
-1145
-1146
-1145
-1144
-1145
-1142
-1141
-1140
-1140
-1140
-1138
-1138
-1136
-1136
-1136
-1135
-1135
-1135
-1133
-1132
-1133
-1131
-1130
-1129
-1128
-1128
-1127
-1127
-1127
-1124
-1124
-1125
-1122
-1123
-1122
-1121
-1121
-1121
-1118
-1120
-1118
-1116
-1116
-1116
-1116
-1114
-1113
-1113
-1114
-1111
-1109
-1108
-1110
-1109
-1107
-1106
-1105
-1106
-1104
-1105
-1104
-1104
-1102@
-1100
-1099
-1099
-1098
-1097
-1095
-1097
-1096
-1095
-1094
-1095
-1092
-1093
-1091
-1090
-1091
-1089
-1089
-1087
-1086
-1086
-1086
-1086
-1084
-1083
-1083
-1082
-1081
-1079
-1081
-1079
-1079
-1077
-1076
-1076
-1074
-1077
-1073
-1073
-1073
-1069
-1071
-1071
-1069
-1071
-1068
-1067
-1068
-1065
-1064
-1065
-1064
-1063
-1064
-1063
-1061
-1061
-1059
-1059
-1059
-1057
-1057
-1057
-1056
-1055
-1055
-1054
-1052
-1053
-1053
-1053
-1050
-1050
-1049
-1049
-1049
-1046
-1047
-1045
-1044
-1045
-1042
-1043
-1041
-1040
-1039
-1041
-1038
-1037
-1037
-1036
-1034
-1034
-1035
-1032
-1032@
-1032
-1031
-1032
-1030
-1030
-1031
-1027
-1028
-1027
-1025
-1026
-1024
-1026
-1024
-1023
-1021
-1020
-1021
-1019
-1019
-1019
-1018
-1018
-1018
-1016
-1015
-1013
-1014
-1015
-1011
-1011
-1010
-1011
-1010
-1007
-1008
-1005
-1006
-1006
-1004
-1004
-1004
-1003
-1001
-1002
-1001
-1000
-998
-999
-998
-997
-998
-996
-996
-994
-992
-994
-992
-992
-991
-990
-990
-990
-988
-988
-987
-986
-986
-986
-982
-984
-984
-983
-982
-981
-980
-981
-981
-979
-979
-976
-978
-976
-974
-974
-974
-972
-973
-973
-971
-970
-969
-969
-967
-969
-968
-966
-965
-964
-964
-962
-961
-960
-960
-960
-960
-958
-958
-957
-957
-955
-956
-954
-954
-954
-954
-953
-952
-950
-949
-951
-949
-948
-949
-947
-946
-946
-945
-944
-945
-943
-943
-942
-940
-940
-940
-940
-939
-936
-936
-936
-936
-935
-935
-934
-933
-935
-932
-932
-930
-930
-929
-930
-929
-926
-927
-926
-927
-925
-925
-924
-923
-922
-922
-922
-919
-919
-919
-917
-917
-917
-916
-917
-915
-914
-914
-913
-914
-912
-911
-910
-910
-909
-910
-909
-908
-909
-907
-907
-904
-906
-903
-902
-904
-903
-901
-901
-898
-899
-898
-898
-898
-897
-896
-895
-894
-895
-894
-892
-892
-892
-889
-889
-889
-888
-888
-887
-887
-886
-884
-885
-884
-883
-883
-882
-882
-881
-879
-881
-880
-879
-878
-880
-877
-876
-878
-873
-873
-873
-875
-873
-873
-872
-872
-869
-869
-870
-868
-868
-867
-867
-866
-866
-865
-864
-865
-865
-861
-862
-861
-860
-861
-860
-859
-857
-856
-856
-858
-857
-855
-856
-854
-853
-853
-852
-853
-849
-850
-849
-849
-848
-847
-848
-847
-846
-845
-846
-845
-844
-841
-843
-844
-843
-843
-841
-840
-839
-838
-836
-836
-837
-836
-835
-832
-834
-834
-833
-832
-832
-831
-828
-830
-829
-828
-829
-826
-827
-825
-825
-825
-823
-822
-822
-822
-821
-820
-820
-819
-820
-818
-819
-816
-817
-817
-817
-816
-815
-814
-813
-814
-812
-812
-812
-810
-810
-808
-809
-808
-807
-806
-806
-807
-806
-805
-803
-804
-802
-802
-801
-802
-801
-800
-800
-798
-798
-797
-796
-795
-796
-794
-795
-794
-793
-793
-793
-792
-791
-790
-790
-790
-788
-788
-787
-788
-786
-787
-786
-784
-785
-784
-784
-782
-781
-781
-780
-781
-779
-779
-777
-778
-778
-778
-776
-775
-775
-774
-773
-774
-771
-771
-772
-772
-770
-770
-769
-769
-768
-767
-767
-767
-766
-765
-765
-765
-765
-764
-763
-761
-761
-761
-759
-758
-758
-758
-757
-757
-755
-757
-757
-755
-755
-755
-752
-754
-752
-752
-751
-750
-751
-749
-748
-749
-750
-749
-747
-747
-746
-742
-744
-744
-743
-741
-740
-742
-742
-740
-738
-739
-741
-738
-737
-736
-736
-736
-735
-736
-736
-734
-733
-732
-734
-733
-731
-732
-732
-729
-728
-727
-728
-728
-728
-726
-726
-726
-726
-725
-725
-723
-724
-722
-723
-721
-722
-719
-719
-719
-719
-719
-718
-717
-717
-715
-716
-716
-712
-713
-714
-712
-713
-711
-712
-711
-710
-710
-710
-709
-708
-707
-705
-706
-705
-705
-705
-702
-702
-703
-704
-702
-702
-701
-700
-698
-699
-698
-697
-700
-695
-696
-696
-695
-694
-695
-695
-692
-693
-691
-690
-691
-691
-692
-690
-692
-689
-688
-687
-687
-686
-686
-686
-686
-686
-684
-684
-684
-683
-684
-682
-681
-681
-680
-681
-679
-679
-678
-678
-679
-678
-674
-676
-673
-674
-675
-672
-674
-675
-671
-671
-671
-670
-669
-669
-669
-668
-668
-667
-668
-665
-664
-667
-664
-664
-664
-665
-662
-660
-663
-663
-661
-660
-661
-660
-658
-660
-657
-659
-656
-657
-657
-656
-655
-655
-655
-651
-654
-654
-651
-651
-651
-650
-650
-649
-649
-649
-648
-647
-644
-646
-646
-645
-646
-645
-643
-643
-642
-642
-641
-643
-641
-640
-640
-639
-640
-638
-638
-638
-639
-638
-636
-634
-636
-635
-633
-634
-632
-635
-634
-631
-632
-630
-630
-629
-629
-628
-627
-627
-628
-627
-624
-625
-625
-623
-625
-623
-623
-624
-622
-623
-620
-622
-621
-618
-619
-619
-618
-616
-617
-617
-616
-615
-614
-616
-614
-613
-613
-611
-613
-612
-613
-611
-611
-610
-610
-608
-608
-610
-608
-608
-609
-607
-605
-606
-604
-604
-604
-603
-604
-602
-601
-601
-601
-602
-600
-600
-600
-601
-599
-597
-597
-597
-597
-596
-596
-596
-595
-596
-595
-593
-592
-593
-592
-592
-591
-592
-590
-590
-590
-589
-589
-589
-587
-587
-586
-586
-585
-585
-586
-585
-584
-584
-584
-583
-581
-581
-582
-581
-581
-579
-580
-580
-577
-578
-577
-576
-577
-575
-576
-576
-576
-575
-574
-574
-572
-573
-573
-573
-572
-569
-570
-570
-570
-569
-568
-569
-566
-567
-569
-566
-567
-566
-566
-566
-566
-565
-565
-563
-562
-562
-561
-561
-560
-562
-560
-559
-560
-559
-559
-557
-556
-557
-557
-556
-555
-554
-555
-554
-553
-552
-553
-554
-553
-554
-551
-550
-551
-549
-551
-548
-549
-547
-549
-547
-547
-546
-545
-544
-546
-544
-544
-544
-544
-543
-542
-542
-541
-543
-543
-540
-539
-539
-538
-539
-539
-538
-538
-536
-536
-535
-535
-536
-533
-535
-534
-533
-533
-532
-531
-532
-532
-531
-532
-529
-529
-529
-529
-527
-528
-528
-527
-527
-525
-527
-526
-525
-525
-523
-522
-524
-523
-522
-523
-522
-522
-523
-522
-521
-519
-520
-521
-519
-518
-518
-518
-517
-516
-516
-517
-516
-515
-513
-516
-515
-512
-513
-515
-513
-512
-510
-509
-511
-510
-510
-508
-508
-510
-508
-508
-506
-506
-508
-507
-506
-506
-505
-506
-504
-504
-502
-503
-502
-502
-501
-501
-501
-500
-500
-500
-501
-500
-498
-498
-498
-497
-497
-499
-496
-497
-495
-495
-494
-493
-495
-493
-492
-492
-491
-492
-492
-491
-492
-491
-491
-489
-489
-489
-490
-488
-487
-489
-487
-487
-486
-487
-486
-485
-485
-485
-484
-484
-483
-481
-483
-482
-482
-481
-482
-481
-480
-481
-480
-480
-480
-480
-477
-479
-477
-477
-478
-475
-478
-474
-475
-475
-473
-474
-474
-473
-473
-471
-472
-473
-472
-472
-470
-470
-472
-471
-471
-470
-469
-468
-469
-468
-469
-467
-465
-467
-466
-465
-465
-464
-463
-465
-463
-463
-463
-461
-463
-460
-461
-461
-459
-459
-461
-460
-458
-457
-457
-457
-457
-456
-455
-457
-456
-455
-455
-456
-455
-455
-454
-451
-454
-455
-451
-452
-451
-452
-453
-451
-451
-449
-450
-449
-451
-451
-449
-449
-448
-449
-448
-446
-446
-447
-446
-443
-445
-446
-444
-444
-444
-444
-443
-442
-442
-442
-442
-442
-441
-440
-440
-440
-441
-439
-439
-439
-438
-439
-439
-437
-436
-437
-437
-436
-434
-435
-435
-434
-433
-434
-433
-432
-433
-433
-432
-432
-430
-430
-430
-429
-430
-428
-429
-427
-427
-427
-428
-427
-426
-427
-426
-425
-425
-425
-425
-425
-424
-422
-423
-423
-423
-422
-422
-421
-422
-423
-420
-421
-419
-420
-421
-419
-416
-418
-419
-417
-417
-418
-419
-417
-415
-417
-414
-416
-416
-415
-413
-414
-413
-414
-414
-413
-413
-412
-411
-412
-412
-410
-410
-411
-410
-408
-407
-409
-407
-406
-408
-406
-407
-406
-407
-405
-405
-406
-406
-405
-406
-403
-403
-402
-403
-402
-402
-402
-402
-401
-400
-400
-401
-399
-399
-398
-398
-396
-400
-397
-397
-398
-398
-397
-395
-396
-396
-394
-394
-395
-393
-393
-392
-391
-392
-394
-393
-392
-392
-392
-392
-393
-393
-390
-391
-391
-390
-389
-391
-388
-389
-388
-389
-386
-388
-388
-387
-386
-387
-389
-387
-386
-384
-384
-385
-384
-384
-384
-384
-381
-382
-382
-382
-381
-382
-381
-381
-380
-379
-381
-381
-379
-379
-378
-377
-378
-377
-377
-376
-376
-376
-376
-375
-374
-374
-374
-374
-374
-375
-374
-374
-373
-374
-371
-374
-373
-371
-373
-371
-371
-370
-370
-372
-369
-369
-371
-369
-368
-369
-370
-369
-366
-367
-367
-368
-366
-365
-366
-366
-366
-364
-365
-366
-366
-366
-361
-364
-363
-360
-362
-362
-361
-360
-361
-360
-360
-360
-359
-359
-359
-359
-358
-358
-358
-358
-358
-355
-355
-355
-357
-357
-356
-353
-355
-354
-355
-354
-353
-355
-353
-352
-353
-353
-352
-352
-352
-350
-352
-353
-350
-351
-350
-349
-348
-349
-349
-348
-348
-347
-348
-348
-349
-348
-346
-347
-347
-346
-346
-346
-346
-345
-345
-343
-345
-342
-343
-343
-342
-346
-343
-343
-342
-342
-343
-340
-340
-341
-340
-340
-341
-339
-339
-340
-338
-339
-338
-338
-338
-337
-339
-338
-337
-336
-336
-335
-335
-335
-334
-336
-334
-334
-333
-333
-334
-333
-334
-333
-332
-331
-333
-332
-330
-330
-332
-331
-330
-331
-329
-331
-330
-328
-328
-328
-329
-327
-326
-328
-327
-328
-325
-326
-326
-326
-325
-326
-325
-323
-324
-324
-324
-322
-322
-322
-322
-324
-324
-323
-320
-322
-323
-321
-321
-322
-319
-320
-320
-321
-318
-320
-319
-319
-319
-319
-319
-319
-317
-317
-317
-317
-316
-316
-316
-316
-314
-315
-315
-314
-314
-315
-315
-313
-313
-313
-313
-312
-311
-311
-311
-309
-311
-311
-311
-309
-309
-310
-309
-308
-309
-308
-308
-308
-309
-308
-306
-308
-306
-307
-306
-306
-306
-306
-306
-306
-304
-304
-304
-304
-303
-304
-303
-304
-302
-303
-301
-302
-301
-301
-301
-300
-302
-301
-301
-300
-300
-298
-299
-300
-299
-297
-298
-298
-298
-297
-298
-298
-297
-295
-295
-294
-296
-293
-295
-294
-293
-295
-292
-294
-293
-293
-293
-292
-291
-292
-292
-289
-292
-292
-290
-290
-290
-290
-290
-291
-290
-291
-289
-289
-290
-288
-288
-289
-286
-286
-288
-285
-287
-285
-284
-285
-284
-283
-283
-283
-283
-283
-284
-284
-284
-283
-285
-282
-282
-282
-281
-281
-283
-281
-280
-281
-280
-280
-280
-280
-279
-279
-279
-278
-279
-279
-278
-277
-278
-278
-276
-277
-276
-276
-275
-277
-276
-277
-278
-274
-275
-275
-275
-275
-276
-274
-274
-273
-273
-274
-274
-273
-271
-273
-271
-273
-273
-272
-272
-271
-271
-268
-270
-268
-270
-269
-268
-268
-269
-270
-268
-268
-269
-269
-267
-267
-267
-268
-265
-268
-266
-266
-265
-266
-265
-265
-265
-266
-266
-265
-263
-262
-263
-263
-263
-262
-263
-261
-263
-262
-260
-261
-261
-262
-262
-262
-259
-260
-259
-259
-260
-258
-259
-260
-259
-257
-259
-258
-258
-258
-257
-259
-258
-255
-257
-254
-258
-257
-256
-257
-256
-255
-256
-255
-256
-254
-254
-254
-254
-254
-255
-253
-254
-254
-253
-254
-253
-252
-250
-253
-251
-252
-252
-250
-251
-250
-248
-251
-251
-249
-249
-250
-247
-249
-248
-249
-247
-248
-248
-248
-247
-246
-246
-246
-246
-245
-245
-245
-245
-244
-247
-245
-244
-245
-244
-243
-243
-244
-242
-243
-242
-242
-243
-242
-241
-241
-241
-239
-241
-242
-241
-241
-240
-241
-239
-239
-240
-240
-239
-237
-240
-238
-238
-238
-238
-237
-238
-238
-237
-237
-236
-236
-235
-235
-236
-235
-234
-235
-233
-240
-228
-245
-218
-253
-200
-286
-132
-832
-1502
-1363
-1457
-1400
-1437
-1426
-1443
-1423
-1421
-1424
-1430
-1433
-1442
-1444
-1438
-1444
-1456
-1462
-1465
-1469
-1482
-1485
-1476
-1470
-1480
-1482
-1475
-1460
-1446
-1447
-1445
-1442
-1445
-1443
-1441
-1446
-1456
-1457
-1454
-1450
-1453
-1456
-1447
-1440
-1443
-1447
-1439
-1422
-1406
-1398
-1387
-1372
-1368
-1372
-1372
-1363
-1369
-1376
-1370
-1359
-1352
-1355
-1357
-1345
-1339
-1345
-1342
-1321
-1301
-1296
-1296
-1288
-1271
-1264
-1263
-1251
-1244
-1239
-1235
-1228
-1227
-1236
-1242
-1235
-1226
-1231
-1231
-1222
-1221
-1233
-1237
-1230
-1227
-1226
-1231
-1227
-1218
-1220
-1226
-1232
-1222@
-1214
-1206
-1201
-1199
-1199
-1200
-1203
-1212
-1213
-1209
-1205
-1198
-1203
-1193
-1181
-1177
-1174
-1165
-1148
-1132
-1122
-1116
-1108
-1098
-1093
-1085
-1077
-1064
-1052
-1046
-1043
-1032
-1023
-1015
-1002
-990
-974
-960
-954
-950
-949
-939
-929
-922
-926
-928
-920
-922
-938
-946
-948
-945
-942
-946
-951
-951
-948
-945
-946
-946
-935
-916
-906
-902
-891
-872
-849
-837
-830
-820
-798
-771
-761
-755
-743
-729
-720
-703
-686
-674
-650
-622
-608
-592
-584
-584
-583
-579
-569
-552
-536
-522
-496
-456
-404
-338
-263
-191
-121
-56
15
69
104
130
157
178
181
167
126
77
34
-17
-88
-187
-313
-463
-638
-845
-1082
-1327
-1558
-1775
-1970
-2132
-2254
-2350
-2423
-2460
-2461
-2426
-2357
-2271
-2183
-2101
-2012
-1916
-1821
-1738
-1660
-1575
-1497
-1430
-1383
-1345
-1319
-1299
-1276
-1245
-1219
-1191
-1149
-1103
-1058
-1012
-961
-891
-812
-724
-621
-510
-390
-261
-135
-17
103
213
302
382
449
503
533
541
529
517
505
489
466
431
389
352
314
267
208
161
119
81
37
-8
-53
-90
-120
-151
-180
-205
-231
-254
-283
-317
-344
-357
-370
-395
-421
-446
-452
-467
-498
-528
-539
-558
-589
-621
-648
-673
-701
-729
-758
-780
-795
-806
-814
-823
-848
-868
-867
-864
-869
-870
-856
-852
-845
-827
-808
-794
-779
-755
-729
-713
-701
-687
-671
-661
-651
-623
-578
-529
-486
-452
-423
-390
-362
-344
-334
-342
-365
-377
-382
-396
-436
-480
-507
-525
-555
-599
-641
-677
-715
-749
-778
-803
-816
-834
-850
-852
-846
-845
-846
-842
-820
-794
-769
-738
-711
-692
-673
-654
-634
-614
-600
-587
-568
-544
-534
-533
-527
-520
-518
-508
-497
-495
-505
-515
-516
-513
-519
-532
-532
-529
-530
-533
-534
-541
-538
-526
-506
-494
-488
-489
-486
-484
-483
-491
-496
-494
-484
-482
-487
-495
-510
-521
-524
-522
-522
-535
-549
-555
-556
-563
-569
-564
-554
-560
-571
-565
-558
-559
-568
-576
-583
-586
-582
-579
-583
-594
-605
-603
-590
-593
-600
-601
-586
-571
-574
-575
-567
-553
-543
-531
-514
-509
-510
-498
-489
-493
-499
-497
-484
-480
-475
-467
-458
-457
-469
-469
-448
-431
-431
-438
-441
-434
-421
-411
-414
-418
-409
-398
-400
-408
-409
-404
-404
-399
-389
-391
-393
-392
-391
-386
-376
-360
-346
-342
-346
-349
-343
-336
-341
-351
-350
-333
-324
-326
-332
-340
-348
-351
-356
-360
-361
-363
-365
-369
-361
-358
-363
-374
-374
-358
-345
-351
-361
-345
-332
-334
-343
-339
-326
-321
-310
-297
-295
-299
-299
-288
-271
-264
-266
-276
-271
-264
-271
-276
-281
-290
-288
-282
-277
-293
-304
-307
-304
-299
-296
-296
-301
-304
-296
-288
-285
-273
-274
-283
-275
-261
-255
-254
-254
-242
-231
-226
-219
-216
-216
-220
-222
-224
-219
-215
-218
-213
-207
-208
-212
-206
-201
-204
-210
-202
-200
-206
-213
-216
-215
-215
-216
-216
-218
-217
-219
-226
-235
-241
-232
-214
-197
-191
-203
-210
-195
-184
-195
-213
-212
-203
-208
-219
-229
-233
-228
-222
-225
-225
-225
-223
-230
-240
-247
-254
-251
-245
-244
-248
-246
-239
-235
-237
-240
-244
-250
-249
-251
-259
-262
-265
-270
-270
-269
-268
-260
-247
-237
-224
-219
-217
-208
-190
-171
-166
-172
-178
-173
-169
-173
-173
-173
-171
-170
-177
-185
-182
-186
-184
-175
-163
-144
-124
-114
-117
-110
-87
-72
-66
-64
-56
-36
-23
-19
-17
-11
-6
-3
1
6
4
3
10
11
7
17
23
17
12
14
21
20
12
2
1
9
12
1
-26
-38
-34
-36
-47
-58
-60
-45
-37
-52
-70
-74
-72
-85
-89
-83
-73
-71
-80
-85
-84
-87
-93
-106
-111
-107
-115
-120
-125
-134
-145
-142
-129
-129
-137
-141
-137
-135
-142
-144
-145
-149
-150
-152
-151
-154
-162
-154
-143
-141
-149
-142
-129
-131
-137
-137
-128
-115
-110
-113
-111
-101
-89
-93
-105
-112
-109
-113
-111
-105
-112
-122
-123
-119
-114
-121
-125
-128
-131
-134
-152
-161
-160
-157
-160
-153
-141
-142
-146
-156
-156
-148
-151
-163
-165
-155
-152
-158
-167
-172
-163
-154
-153
-151
-142
-143
-146
-143
-134
-125
-117
-119
-111
-102
-97
-101
-108
-111
-105
-102
-103
-102
-100
-105
-106
-108
-105
-89
-75
-75
-81
-77
-61
-56
-58
-57
-47
-33
-26
-35
-37
-38
-46
-56
-57
-54
-52
-43
-34
-27
-27
-24
-25
-17
-18
-20
-22
-21
-17
-21
-25
-25
-34
-41
-35
-30
-41
-55
-57
-58
-67
-69
-44
-25
-27
-33
-33
-28
-26
-26
-28
-26
-25
-23
-23
-31
-36
-37
-50
-62
-66
-67
-72
-85
-102
-110
-102
-90
-95
-103
-94
-82
-79
-82
-79
-78
-77
-67
-53
-50
-56
-49
-37
-32
-33
-30
-13
-6
-10
-20
-20
-14
-18
-26
-32
-30
-33
-40
-37
-43
-61
-66
-66
-71
-88
-98
-94
-98
-114
-133
-137
-136
-137
-139
-145
-153
-156
-154
-147
-145
-148
-148
-141
-138
-140
-141
-139
-129
-116
-111
-109
-94
-93
-93
-92
-83
-67
-55
-52
-50
-40
-32
-34
-30
-34
-39
-33
-15
-2
-3
-12
-9
4
19
15
10
15
20
26
25
10
-2
-6
-3
-7
-9
-11
-18
-25
-27
-31
-44
-55
-58
-64
-69
-81
-94
-108
-116
-115
-109
-106
-115
-134
-146
-137
-132
-145
-156
-148
-139
-137
-140
-146
-150
-149
-146
-138
-133
-123
-120
-116
-111
-104
-89
-72
-55
-51
-48
-27
-4
3
8
13
25
41
64
69
60
59
61
48
40
44
47
47
42
34
34
43
41
37
45
65
68
56
57
72
67
50
44
35
23
5
-1
-5
-14
-32
-44
-41
-19
-5
-5
-16
-18
-8
-1
-4
-13
-15
-1
5
-2
-6
-7
-1
3
-1
3
9
4
-10
-4
14
28
30
36
49
63
77
94
106
109
109
117
137
157
152
142
148
159
153
145
147
154
158
164
168
162
164
174
180
186
186
181
175
174
168
157
150
144
141
141
140
144
143
133
121
118
126
124
118
111
104
108
100
90
89
91
80
73
77
72
52
39
47
53
44
38
49
50
44
36
37
56
78
85
77
85
108
112
103
106
121
120
117
125
120
101
87
83
77
68
59
64
79
86
76
73
74
73
76
81
84
78
68
67
74
72
70
67
69
79
87
90
93
102
101
96
104
117
124
116
100
98
106
114
107
91
80
82
86
84
69
57
62
66
68
72
74
71
64
59
64
83
97
108
123
139
161
180
184
178
183
201
204
189
171
170
168
159
153
146
136
129
123
116
102
91
82
79
80
83
78
64
53
53
51
46
42
35
31
34
34
23
12
1
-5
-7
6
18
13
6
11
23
28
28
25
21
20
23
21
15
4
1
14
20
24
25
27
30
25
19
12
19
26
22
15
20
30
32
26
32
46
48
38
42
54
57
48
49
60
66
56
58
77
91
78
65
69
84
94
94
93
94
96
100
96
98
98
98
99
94
86
86
78
67
59
60
72
73
68
57
53
52
52
48
45
42
46
49
40
28
30
37
37
33
40
55
66
64
53
52
68
85
85
78
69
67
76
80
72
54
51
51
55
40
24
11
6
9
11
1
-7
-12
-19
-22
-27
-42
-67
-78
-80
-74
-80
-99
-109
-108
-112
-123
-129
-133
-133
-138
-142
-134
-126
-133
-140
-128
-98
-82
-83
-77
-66
-52
-30
-25
-33
-26
-7
7
7
16
23
34
41
45
46
50
50
38
33
34
32
34
49
55
47
50
63
71
63
64
86
98
103
108
105
104
109
112
108
103
96
100
112
113
104
106
118
122
121
121
119
113
111
114
117
118
112
111
116
112
104
98
92
86
81
76
91
104
103
95
105
119
122
117
118
124
131
121
110
115
121
115
106
110
107
96
87
75
60
55
54
66
71
63
60
63
67
72
68
63
65
70
79
85
87
82
82
90
103
111
110
114
128
136
142
149
161
172
174
176
168
155
141
130
118
118
118
120
129
137
145
148
149
145
146
162
182
191
183
183
187
198
203
204
206
202
204
206
205
197
189
195
197
193
198
196
179
163
157
159
163
165
161
157
158
169
177
172
167
164
162
156
158
152
152
147
138
130
136
134
119
117
130
131
124
124
143
165
176
183
200
212
217
225
233
225
211
212
215
206
202
196
194
183
173
181
200
200
179
175
186
194
182
164
151
149
142
135
128
109
86
78
77
64
46
21
4
-9
-25
-40
-45
-41
-49
-52
-46
-42
-42
-51
-50
-37
-31
-33
-34
-38
-42
-52
-50
-40
-39
-41
-29
-3
4
-2
2
11
27
39
43
45
39
37
32
24
22
17
15
13
12
6
13
21
9
-15
-16
3
19
13
-7
-13
-6
1
-8
-20
-26
-25
-28
-37
-39
-40
-43
-45
-46
-43
-37
-34
-37
-38
-41
-30
-7
6
12
19
31
47
66
71
72
80
103
120
118
110
108
115
117
113
116
127
138
139
143
151
152
157
178
197
209
207
206
206
206
203
204
211
208
204
202
201
202
187
166
159
159
152
137
115
88
64
50
24
-15
-53
-77
-97
-131
-172
-206
-230
-254
-277
-295
-308
-324
-345
-363
-360
-351
-344
-335
-321
-307
-301
-288
-269
-262
-257
-250
-243
-231
-211
-197
-191
-191
-186
-163
-145
-143
-128
-93
-52
-28
-9
27
78
118
145
186
229
262
277
300
347
398
435
481
545
606
665
721
784
846
915
990
1062
1121
1168
1209
1250
1282
1296
1298
1299
1292
1266
1226
1185
1140
1093
1050
998
935
877
815
743
671
599
527
463
397
309
215
148
87
18
-54
-123
-182
-228
-271
-327
-378
-415
-448
-476
-501
-514
-515
-503
-496
-494
-481
-452
-420
-399
-381
-360
-342
-331
-326
-320
-327
-332
-337
-347
-356
-370
-396
-417
-440
-471
-501
-523
-544
-569
-605
-642
-660
-667
-669
-681
-691
-680
-651
-623
-599
-553
-475
-387
-297
-206
-107
-9
77
151
230
308
382
453
513
566
616
665
710
738
747
764
787
802
807
801
796
797
802
815
828
828
819
842
893
921
902
866
862
872
862
828
797
779
761
743
733
729
712
689
680
676
658
629
605
592
571
555
545
543
531
506
492
492
477
439
402
371
344
303
244
174
111
54
-16
-96
-187
-281
-370
-465
-573
-676
-762
-846
-942
-1036
-1111
-1175
-1243
-1308
-1360
-1392
-1415
-1429
-1433
-1437
-1429
-1404
-1371
-1331
-1277
-1207
-1124
-1037
-949
-848
-742
-629
-517
-382
-236
-102
31
167
310
444
578
719
856
979
1081
1180
1276
1359
1412
1451
1501
1546
1568
1564
1539
1515
1487
1436
1365
1292
1214
1134
1049
952
862
763
655
549
452
346
241
135
29
-65
-152
-220
-284
-347
-405
-460
-496
-522
-543
-562
-568
-563
-540
-514
-496
-466
-428
-388
-333
-269
-216
-167
-100
-33
25
71
126
180
229
280
325
362
394
425
453
472
481
487
496
509
511
502
491
481
461
436
426
423
405
376
351
340
333
316
284
252
236
219
190
155
124
95
63
30
-3
-34
-73
-118
-149
-174
-205
-234
-246
-262
-283
-304
-321
-331
-346
-358
-367
-370
-371
-370
-369
-366
-373
-380
-367
-350
-354
-348
-326
-307
-311
-318
-310
-305
-306
-304
-298
-299
-307
-310
-306
-306
-312
-313
-305
-301
-304
-303
-301
-295
-285
-272
-251
-217
-195
-185
-167
-139
-111
-90
-69
-49
-23
2
13
23
36
55
68
80
91
100
112
127
134
139
153
181
189
191
196
215
229
242
254
258
267
280
300
321
326
328
335
347
356
360
370
392
412
418
422
431
429
427
429
434
442
441
436
428
414
409
408
413
417
420
421
429
426
422
422
440
463
475
476
468
469
474
472
458
447
438
436
421
403
391
379
359
344
335
314
290
270
252
235
224
224
221
208
196
191
187
173
159
148
147
144
133
123
119
120
111
94
88
90
79
75
92
105
95
84
91
108
115
109
110
112
113
110
112
116
102
85
92
98
89
78
77
80
80
74
79
99
107
105
103
106
109
112
112
112
116
117
108
107
102
92
88
78
70
70
62
48
37
38
38
29
25
29
21
13
13
20
12
-2
-6
-6
-13
-20
-26
-37
-52
-68
-76
-82
-86
-88
-86
-80
-76
-77
-85
-87
-81
-77
-75
-76
-72
-74
-79
-73
-74
-86
-95
-94
-87
-87
-94
-108
-117
-110
-97
-93
-88
-91
-92
-89
-85
-85
-88
-97
-91
-80
-81
-92
-101
-97
-93
-97
-98
-98
-88
-81
-88
-93
-87
-67
-54
-56
-46
-25
-8
7
16
12
7
2
-5
-14
-42
-76
-91
-90
-78
-59
-28
21
68
102
138
176
207
234
272
302
320
337
359
387
408
435
457
458
465
476
476
466
456
451
446
439
444
447
436
406
388
390
392
374
349
332
322
309
294
275
261
252
246
239
232
231
225
217
216
220
223
230
240
243
239
245
265
263
250
244
256
263
258
256
253
253
244
236
238
224
211
204
205
201
187
178
172
164
151
131
119
113
104
90
77
63
47
34
30
25
12
3
-1
-16
-43
-53
-46
-43
-57
-74
-77
-74
-79
-76
-67
-64
-61
-61
-60
-61
-64
-69
-71
-69
-68
-69
-66
-66
-65
-61
-41
-25
-25
-33
-28
-14
-5
-5
-11
-10
4
12
13
7
2
-11
-19
-12
-2
-11
-22
-15
-7
-8
-22
-28
-20
-5
-2
-6
-7
-7
-5
-5
-9
-14
-30
-40
-38
-36
-48
-51
-41
-42
-60
-68
-58
-51
-60
-79
-85
-77
-71
-70
-74
-78
-73
-68
-69
-74
-75
-81
-76
-60
-53
-58
-58
-45
-38
-30
-4
24
33
36
41
63
79
76
78
85
99
108
121
117
99
87
97
116
120
116
125
156
173
165
160
173
194
194
188
198
210
205
199
204
211
213
211
217
221
214
207
214
211
201
211
228
240
241
235
224
229
244
248
244
244
239
241
241
226
198
178
181
183
168
150
139
134
122
111
112
118
128
119
108
108
115
117
110
103
107
110
106
100
99
85
68
64
63
56
48
52
56
66
66
65
60
59
63
70
70
57
43
41
40
34
18
1
-6
-12
-26
-40
-44
-65
-84
-91
-88
-96
-106
-115
-129
-131
-129
-128
-130
-139
-143
-146
-150
-162
-177
-187
-183
-177
-172
-176
-180
-187
-188
-189
-194
-193
-178
-175
-173
-161
-149
-146
-156
-154
-140
-138
-146
-151
-146
-145
-149
-152
-153
-147
-149
-143
-132
-119
-115
-116
-107
-93
-81
-76
-69
-52
-51
-55
-54
-39
-31
-39
-36
-24
-13
-9
-6
-2
-1
-2
9
34
46
44
40
57
76
76
77
87
99
113
119
115
119
132
140
151
168
181
194
205
209
214
230
257
280
284
293
317
343
349
344
356
374
383
384
379
386
405
423
442
474
526
594
674
757
839
909
969
1030
1109
1186
1232
1254
1266
1262
1228
1171
1096
1002
894
770
628
451
247
24
-220
-482
-730
-945
-1140
-1316
-1469
-1593
-1679
-1727
-1746
-1726
-1677
-1615
-1540
-1456
-1368
-1276
-1163
-1051
-934
-819
-715
-638
-590
-544
-501
-469
-443
-420
-404
-384
-357
-328
-298
-276
-248
-196
-133
-66
5
88
184
288
395
512
625
724
828
933
1016
1083
1137
1186
1230
1257
1273
1276
1269
1254
1226
1184
1141
1094
1038
980
917
863
809
752
692
636
595
564
528
469
404
357
326
284
243
211
169
126
100
82
55
21
-1
-9
-23
-47
-60
-73
-95
-117
-134
-149
-153
-168
-194
-206
-210
-223
-243
-263
-270
-272
-282
-293
-294
-288
-291
-295
-285
-277
-274
-264
-250
-235
-223
-217
-203
-189
-172
-164
-154
-147
-147
-135
-136
-134
-122
-116
-123
-114
-100
-89
-88
-83
-72
-61
-43
-11
22
46
49
60
86
112
138
163
189
229
287
332
358
382
411
429
431
431
413
379
347
313
271
223
182
135
73
10
-43
-91
-153
-221
-271
-307
-335
-362
-384
-394
-388
-384
-377
-357
-334
-308
-269
-225
-186
-152
-118
-79
-34
-6
17
43
62
78
90
96
103
111
124
128
133
138
139
141
140
138
140
154
162
151
132
132
149
155
143
140
151
160
163
161
152
143
134
136
142
139
125
118
125
133
122
115
122
131
125
118
117
121
118
109
108
116
112
112
108
103
96
85
70
76
82
78
78
93
104
99
98
105
115
116
122
123
119
111
108
107
102
94
86
84
78
68
58
37
28
17
11
16
22
9
-3
-6
-5
-2
-8
-11
-13
-10
-1
-2
-13
-31
-33
-30
-43
-60
-64
-73
-86
-97
-99
-93
-73
-65
-73
-78
-66
-51
-51
-62
-60
-38
-32
-38
-40
-37
-35
-37
-40
-36
-33
-40
-49
-42
-37
-46
-46
-37
-28
-30
-34
-34
-29
-27
-30
-28
-29
-31
-29
-30
-37
-40
-32
-30
-39
-36
-28
-18
-4
3
-4
-13
-5
14
15
2
-13
-3
16
12
-2
-5
0
8
17
23
26
22
18
22
32
36
39
45
43
50
63
71
72
70
83
94
102
112
117
115
113
121
136
145
139
136
152
172
171
165
168
181
194
191
191
198
196
196
206
209
201
191
188
194
191
187
198
202
192
183
193
205
204
197
188
187
193
196
197
198
195
192
202
202
190
176
174
181
183
171
168
171
166
153
153
166
179
182
181
176
169
167
168
155
140
136
130
131
125
109
97
99
100
101
91
85
87
98
101
90
83
85
90
86
80
77
77
73
67
62
59
52
44
38
35
32
29
11
4
-3
-10
2
24
35
29
28
40
50
51
60
69
73
79
73
56
45
53
56
55
50
49
42
31
29
34
35
46
51
46
48
56
60
56
51
52
57
55
47
34
29
20
18
16
20
24
22
27
44
53
50
52
64
72
61
56
58
52
43
39
38
34
20
17
19
10
-1
-9
-8
-12
-16
-17
-12
-1
0
-1
1
4
9
2
-13
-20
-16
-18
-26
-34
-40
-51
-54
-51
-53
-54
-59
-62
-53
-44
-36
-28
-12
-3
-7
-6
12
24
21
17
24
32
38
39
40
45
49
44
41
42
42
52
58
53
49
52
53
55
55
48
44
47
53
53
54
68
80
78
76
75
81
87
83
69
63
67
68
62
52
36
22
21
24
17
2
-3
1
2
-3
-9
-8
-7
-3
7
10
14
24
30
28
28
33
40
36
22
22
37
45
40
32
30
41
45
46
48
48
47
42
39
33
28
29
35
38
37
36
35
34
47
61
57
53
51
49
52
40
26
29
34
30
18
14
18
15
11
0
4
23
30
24
19
33
58
68
71
85
101
100
93
94
94
88
81
83
97
97
85
81
82
77
67
70
81
88
84
82
87
100
100
91
83
87
89
91
82
64
62
69
70
58
53
61
63
60
55
58
67
70
66
55
65
74
69
60
60
57
53
54
56
57
52
40
44
60
58
38
35
65
81
62
54
66
83
80
74
69
59
64
67
63
64
64
58
56
58
57
55
56
54
51
59
57
59
60
54
45
42
40
40
38
38
38
34
41
36
21
18
17
22
18
5
6
22
45
44
41
40
52
62
62
68
74
77
76
72
75
78
70
60
54
45
44
41
40
33
36
56
64
74
68
60
68
77
72
59
58
59
61
54
49
49
46
43
44
53
46
35
22
14
15
15
14
32
40
42
38
44
63
73
63
51
53
60
58
52
39
35
40
40
30
9
-1
-7
-8
-24
-33
-27
-26
-31
-41
-43
-45
-43
-46
-51
-56
-66
-83
-96
-97
-103
-121
-126
-123
-132
-144
-137
-118
-114
-108
-111
-114
-95
-78
-77
-77
-67
-51
-44
-53
-54
-47
-40
-44
-33
-17
-18
-18
-17
-14
-15
-20
-12
1
11
16
15
27
37
37
41
50
47
39
34
38
43
49
54
58
59
52
69
72
93
37
65
103
163
76
45
109
77
62
54
73
82
74
48
37
35
22
36
30
13
13
7
17
21
8
9
19
26
33
44
57
64
65
72
84
97
90
87
96
109
110
98
97
102
96
80
74
89
90
73
56
60
67
61
46
33
40
45
46
29
13
13
22
22
19
20
23
44
58
66
57
49
60
71
76
71
79
93
92
81
80
90
82
69
74
78
74
62
54
52
48
40
41
42
43
26
24
32
34
32
32
32
29
28
28
28
14
4
5
12
7
-8
-14
-12
-2
2
9
16
31
37
36
34
41
42
23
17
29
28
20
15
11
5
6
14
18
11
-2
-5
3
12
7
-10
-17
-21
-26
-25
-26
-37
-52
-56
-57
-52
-54
-61
-63
-56
-49
-61
-67
-64
-62
-61
-50
-42
-47
-45
-33
-24
-20
-22
-15
-14
-18
-26
-29
-32
-47
-61
-65
-57
-48
-58
-62
-48
-37
-44
-61
-57
-43
-48
-59
-53
-44
-49
-61
-66
-60
-55
-55
-57
-53
-47
-48
-52
-36
-44
-63
-63
-53
-55
-62
-63
-56
-37
-19
-17
-27
-27
-24
-21
-19
-17
-29
-44
-46
-43
-54
-76
-75
-64
-56
-58
-49
-28
-15
-20
-42
-41
-16
-8
-16
-12
2
0
-7
-10
-12
-2
10
20
24
36
41
40
39
34
41
62
76
76
75
78
79
80
77
72
82
97
107
111
111
113
118
128
135
127
119
127
133
142
147
150
154
157
160
151
148
144
124
113
111
110
104
97
100
109
112
106
107
118
118
97
90
119
130
114
105
113
119
118
111
97
106
130
129
112
109
113
119
121
113
96
86
93
95
97
99
112
133
144
136
129
143
162
156
142
142
157
156
139
124
127
127
122
118
123
123
124
137
139
139
141
148
147
142
134
131
136
122
109
116
119
118
108
108
107
97
97
104
101
87
80
91
111
123
118
110
133
160
166
173
188
188
178
168
152
145
135
130
135
131
132
131
140
153
154
160
175
194
194
177
181
201
200
178
161
173
180
158
138
129
119
100
85
81
88
74
49
42
52
49
26
15
21
21
27
45
41
23
22
38
51
36
22
25
35
28
-1
-17
-16
-20
-40
-54
-54
-59
-81
-112
-124
-125
-130
-143
-152
-146
-140
-137
-143
-149
-154
-158
-174
-186
-200
-210
-219
-223
-227
-218
-198
-181
-172
-169
-156
-137
-126
-126
-136
-130
-116
-108
-103
-102
-109
-106
-99
-96
-97
-89
-78
-80
-78
-62
-47
-60
-81
-67
-51
-65
-87
-90
-78
-71
-86
-93
-96
-100
-104
-113
-113
-102
-106
-129
-144
-130
-115
-129
-152
-150
-133
-128
-144
-154
-155
-152
-152
-156
-165
-166
-158
-150
-152
-159
-160
-161
-169
-180
-176
-174
-178
-167
-160
-169
-166
-148
-136
-153
-166
-172
-171
-167
-167
-181
-184
-177
-187
-203
-213
-203
-201
-209
-206
-209
-217
-225
-216
-207
-204
-195
-188
-195
-198
-194
-195
-198
-196
-195
-201
-211
-210
-198
-192
-203
-219
-216
-199
-184
-185
-181
-171
-163
-168
-185
-183
-171
-164
-165
-171
-165
-160
-168
-165
-149
-151
-174
-197
-189
-167
-173
-184
-173
-154
-149
-165
-171
-155
-151
-172
-184
-172
-151
-141
-138
-144
-140
-131
-133
-133
-123
-112
-110
-109
-103
-86
-67
-60
-49
-33
-20
-13
-11
-1
13
14
6
9
18
20
15
11
26
33
25
29
54
75
79
81
83
94
103
116
128
135
149
160
159
158
167
168
163
155
163
165
154
149
152
160
149
146
164
168
157
147
146
153
139
114
109
125
130
110
97
99
98
89
81
80
86
84
87
89
85
78
79
88
91
86
91
105
96
92
108
119
108
105
116
113
106
107
109
115
110
100
108
126
137
139
154
175
192
213
236
258
287
327
371
425
476
531
597
681
772
857
936
1028
1108
1173
1232
1293
1357
1412
1455
1484
1504
1518
1520
1514
1506
1498
1485
1470
1457
1427
1379
1330
1276
1219
1153
1071
997
927
848
764
672
592
514
421
328
258
187
104
29
-26
-67
-122
-175
-210
-233
-276
-331
-350
-358
-395
-438
-455
-451
-468
-519
-561
-583
-612
-663
-711
-755
-796
-835
-886
-935
-975
-1022
-1072
-1106
-1132
-1158
-1177
-1195
-1223
-1257
-1279
-1289
-1292
-1283
-1253
-1211
-1150
-1065
-947
-798
-634
-495
-386
-282
-197
-134
-98
-67
-21
26
64
115
183
246
300
346
398
459
520
593
671
736
794
861
942
1018
1080
1139
1201
1265
1311
1335
1371
1388
1382
1367
1368
1370
1355
1332
1306
1280
1258
1227
1186
1148
1100
1045
986
921
851
779
702
630
558
481
405
335
267
202
144
92
47
-13
-70
-124
-178
-229
-274
-319
-372
-420
-465
-494
-522
-567
-606
-629
-643
-665
-691
-716
-733
-751
-771
-794
-812
-821
-819
-822
-828
-832
-825
-800
-748
-679
-609
-541
-483
-427
-393
-386
-394
-400
-414
-439
-457
-461
-468
-496
-523
-536
-541
-554
-576
-592
-589
-571
-552
-544
-529
-499
-455
-405
-361
-306
-251
-194
-142
-81
-7
69
140
210
280
349
423
488
543
598
647
701
757
802
843
866
885
899
903
907
898
878
863
858
838
794
750
714
674
623
566
510
455
396
325
255
192
127
58
-17
-88
-155
-218
-282
-347
-406
-447
-490
-531
-565
-606
-649
-682
-698
-714
-734
-749
-746
-741
-746
-750
-739
-722
-701
-678
-658
-629
-593
-558
-520
-477
-426
-377
-333
-287
-240
-188
-137
-98
-68
-30
17
50
82
110
129
149
168
179
187
198
199
193
184
185
188
180
171
158
140
127
116
95
67
54
47
28
0
-15
-15
-25
-59
-84
-92
-107
-123
-133
-138
-137
-136
-146
-166
-165
-156
-166
-184
-189
-180
-176
-183
-192
-196
-195
-195
-198
-193
-182
-182
-184
-179
-166
-156
-146
-118
-94
-79
-64
-33
-6
4
11
32
65
86
97
100
113
131
142
153
178
206
216
220
240
263
268
273
291
310
316
331
340
336
339
346
351
343
335
337
341
333
319
313
308
288
265
261
273
268
258
239
231
227
227
220
216
213
205
183
162
156
143
126
114
118
118
97
78
84
93
71
54
68
83
64
39
46
60
55
32
32
35
29
17
-5
-17
-22
-38
-56
-59
-63
-84
-98
-88
-83
-100
-116
-114
-101
-103
-111
-117
-118
-110
-109
-121
-132
-132
-132
-146
-164
-169
-167
-165
-177
-181
-166
-149
-148
-156
-159
-148
-131
-124
-118
-109
-89
-77
-67
-64
-55
-48
-44
-42
-27
-7
-12
-24
-19
-1
-2
-7
1
11
15
7
-4
-3
0
5
-5
-16
-20
-10
-10
-24
-39
-49
-58
-55
-61
-84
-103
-92
-78
-87
-93
-82
-63
-64
-63
-44
-35
-45
-36
-21
-13
-7
4
21
34
37
50
60
64
64
71
81
91
97
97
106
126
138
137
140
156
167
162
163
180
182
177
186
207
213
196
187
202
208
199
193
202
215
210
203
204
207
206
198
195
192
189
186
181
171
152
139
135
138
136
115
107
114
110
95
86
91
89
80
76
69
62
54
46
39
31
28
16
-6
-23
-34
-50
-69
-84
-89
-91
-86
-88
-88
-89
-91
-95
-99
-101
-107
-108
-109
-107
-115
-120
-125
-131
-131
-125
-121
-133
-141
-136
-127
-129
-133
-117
-98
-99
-96
-82
-70
-60
-52
-50
-42
-32
-16
-10
-27
-37
-23
-5
-9
-14
-6
9
16
16
11
14
13
20
27
26
26
29
26
24
31
40
44
44
39
40
35
24
21
17
-1
-13
-20
-21
-19
-28
-48
-52
-51
-63
-86
-90
-85
-91
-102
-109
-106
-112
-124
-127
-111
-107
-119
-132
-135
-131
-134
-146
-142
-115
-104
-115
-115
-100
-95
-98
-104
-104
-107
-102
-107
-119
-124
-125
-120
-108
-115
-127
-119
-106
-100
-104
-96
-73
-58
-60
-69
-60
-50
-54
-61
-58
-52
-52
-58
-54
-40
-37
-42
-45
-37
-34
-40
-40
-32
-31
-39
-49
-40
-26
-24
-28
-26
-22
-24
-40
-47
-40
-37
-45
-53
-46
-36
-48
-67
-74
-75
-73
-71
-77
-84
-91
-93
-86
-81
-86
-82
-73
-76
-78
-81
-83
-78
-70
-66
-65
-56
-49
-32
-17
-5
7
17
22
30
45
58
53
46
50
45
35
29
30
31
34
38
27
17
15
14
2
-7
-9
-5
0
-1
1
-8
1
10
15
12
8
9
5
6
-2
-9
6
21
18
9
8
6
4
5
8
19
22
20
20
32
49
58
59
62
74
82
82
73
68
76
94
97
90
90
92
95
106
122
117
108
116
133
137
126
124
125
120
109
99
96
92
84
74
74
74
70
67
62
52
54
65
72
78
81
83
86
93
98
88
82
85
93
87
72
69
68
64
58
59
56
49
41
36
28
21
18
21
27
28
18
11
12
13
4
-7
-12
-9
-7
-10
-14
-15
-13
-12
-17
-26
-30
-23
-19
-21
-27
-18
2
3
-4
-2
5
1
-9
1
12
9
-5
-6
1
-7
-21
-22
-12
-16
-23
-18
-3
6
-2
-12
-9
-4
-12
-21
-27
-26
-31
-37
-36
-29
-29
-26
-29
-38
-39
-40
-51
-59
-59
-62
-64
-51
-37
-29
-22
-21
-18
-6
5
10
16
25
47
68
72
67
77
94
105
107
114
144
166
173
193
234
283
343
413
489
544
576
610
638
663
701
752
795
830
851
842
810
757
682
580
457
325
175
-9
-233
-456
-678
-928
-1184
-1401
-1591
-1754
-1892
-2000
-2068
-2106
-2116
-2085
-2022
-1942
-1862
-1772
-1665
-1548
-1440
-1327
-1196
-1069
-955
-857
-769
-683
-616
-563
-515
-465
-420
-390
-362
-325
-281
-249
-222
-177
-117
-56
13
96
203
313
428
545
671
799
899
1000
1108
1194
1258
1310
1360
1388
1391
1377
1369
1350
1301
1244
1192
1136
1062
980
914
859
796
714
639
590
538
474
409
356
314
271
208
144
106
80
36
-12
-43
-61
-88
-114
-138
-153
-156
-154
-170
-208
-221
-193
-190
-219
-251
-255
-253
-264
-277
-285
-287
-284
-286
-291
-288
-287
-295
-287
-273
-268
-276
-278
-260
-246
-246
-240
-221
-202
-189
-175
-163
-143
-135
-138
-125
-108
-101
-101
-100
-87
-82
-84
-70
-50
-48
-56
-58
-43
-31
-32
-40
-38
-19
-8
-14
-16
-5
10
17
24
29
32
26
18
18
25
49
72
78
80
92
109
119
134
145
156
165
171
183
194
198
205
210
214
226
238
236
238
250
267
280
282
307
352
390
418
447
480
504
516
513
494
475
454
428
390
337
284
238
177
103
26
-32
-79
-127
-184
-230
-255
-278
-302
-324
-330
-325
-322
-320
-303
-290
-272
-242
-201
-157
-118
-89
-58
-23
12
48
87
119
139
147
162
182
188
184
182
183
178
170
160
145
138
130
122
121
121
113
102
107
120
127
128
132
144
152
150
160
171
178
180
180
189
202
206
205
216
224
216
213
218
219
205
185
179
184
164
139
127
118
109
96
91
86
75
57
42
37
28
5
0
11
11
3
-4
-8
-7
-6
2
19
33
37
39
48
65
66
65
71
83
85
78
74
71
65
53
38
40
39
26
20
29
37
28
17
24
27
21
25
29
20
16
15
12
4
3
-5
-17
-24
-28
-38
-52
-61
-64
-58
-50
-47
-52
-56
-54
-52
-53
-59
-68
-75
-74
-72
-81
-85
-80
-79
-81
-87
-91
-95
-104
-106
-106
-104
-99
-90
-81
-85
-88
-73
-58
-60
-75
-75
-66
-73
-86
-91
-93
-96
-107
-117
-112
-106
-118
-123
-118
-115
-115
-120
-127
-124
-123
-117
-113
-118
-130
-137
-141
-148
-163
-183
-187
-193
-203
-209
-222
-233
-250
-261
-252
-238
-243
-263
-265
-252
-243
-248
-254
-252
-250
-250
-250
-248
-249
-254
-247
-241
-238
-250
-264
-272
-270
-269
-279
-278
-263
-253
-256
-252
-239
-233
-234
-232
-226
-213
-198
-194
-201
-201
-191
-196
-202
-196
-194
-200
-204
-197
-177
-167
-160
-149
-133
-121
-109
-114
-113
-99
-82
-71
-68
-62
-54
-43
-35
-23
-6
3
8
16
32
49
58
60
64
74
89
93
93
96
102
113
123
126
125
124
129
141
147
142
140
138
143
149
148
160
181
191
186
185
192
201
201
195
190
196
196
192
180
173
164
147
143
140
129
114
110
112
108
101
108
110
105
108
112
104
91
87
87
87
84
81
77
77
74
69
65
62
59
62
79
93
103
103
105
114
129
138
143
141
136
138
139
136
133
126
126
135
144
144
140
137
136
130
127
130
140
140
139
135
136
129
126
122
120
118
118
118
120
121
121
109
109
114
111
106
111
117
126
121
114
113
124
138
133
124
123
129
130
123
117
116
112
105
99
90
86
93
90
82
78
83
98
110
99
94
101
112
112
92
83
89
93
83
80
76
74
79
80
81
77
71
60
55
49
47
55
60
55
46
45
55
55
42
34
43
39
30
27
33
33
27
16
20
29
21
17
29
39
35
26
39
52
52
49
51
50
50
45
47
53
52
51
51
47
37
28
23
23
17
16
18
27
34
26
13
10
18
11
-7
-20
-22
-21
-25
-30
-32
-37
-36
-29
-20
-23
-33
-28
-20
-19
-19
-4
14
20
21
29
37
38
31
22
25
33
30
31
29
29
26
9
0
3
0
-17
-30
-28
-22
-27
-29
-31
-38
-43
-50
-62
-66
-69
-82
-98
-101
-99
-99
-105
-112
-115
-115
-117
-122
-126
-128
-115
-102
-109
-118
-112
-94
-88
-93
-96
-92
-87
-96
-112
-110
-109
-115
-114
-104
-96
-107
-121
-115
-96
-85
-73
-62
-62
-66
-56
-44
-42
-43
-39
-36
-38
-38
-33
-34
-37
-38
-35
-35
-31
-30
-27
-21
-14
-5
-2
2
8
22
31
28
18
19
26
23
11
10
17
19
6
-1
-4
-5
-6
-7
0
14
24
25
26
25
26
28
32
35
36
40
47
53
48
40
30
24
20
20
18
7
1
-5
-5
-5
-5
0
3
2
6
11
10
10
13
17
20
21
20
15
9
11
7
6
15
21
15
7
12
25
24
17
13
18
27
25
17
12
14
23
29
26
22
23
25
21
9
-1
-5
-11
-14
-15
-11
1
11
4
-7
-5
1
0
-7
-1
13
16
6
2
5
12
10
11
16
3
-6
-8
-5
-9
-9
0
5
-8
-20
-11
0
-3
-20
-25
-20
-14
-17
-23
-28
-24
-23
-32
-28
-18
-21
-30
-26
-11
-10
-20
-27
-24
-17
-23
-38
-50
-49
-50
-64
-81
-86
-84
-84
-95
-105
-108
-103
-104
-108
-111
-104
-88
-83
-84
-82
-62
-50
-50
-54
-46
-41
-39
-45
-51
-50
-50
-39
-25
-22
-32
-41
-47
-45
-49
-59
-52
-41
-37
-47
-44
-29
-19
-27
-32
-16
-12
-26
-31
-25
-15
-17
-23
-16
1
2
-1
6
23
35
35
42
49
52
49
50
48
45
41
39
42
42
27
13
13
10
-6
-8
2
-5
-28
-37
-11
13
12
0
7
28
39
40
37
45
52
51
42
37
38
39
37
31
19
10
5
1
-16
-27
-21
-14
-22
-39
-47
-38
-29
-33
-43
-43
-39
-40
-42
-45
-43
-43
-45
-43
-35
-34
-36
-33
-26
-18
-15
-16
-15
-8
2
12
9
1
1
5
1
-2
-3
-9
-15
-19
-16
-11
-9
-17
-20
-16
-7
2
2
-2
-3
-1
1
-3
-4
-3
2
6
0
-10
-8
-7
-6
-3
-5
-3
6
10
3
-2
9
30
42
35
30
40
58
62
61
68
80
90
96
94
89
89
92
95
103
101
91
93
102
102
97
93
99
107
103
92
89
89
82
73
67
59
60
63
59
56
48
42
49
40
25
27
34
40
41
31
27
34
40
42
32
25
29
33
25
15
5
10
11
5
-6
-17
-18
-26
-36
-41
-43
-43
-41
-39
-44
-47
-36
-25
-29
-33
-26
-23
-27
-30
-35
-34
-34
-40
-38
-30
-35
-51
-49
-39
-31
-37
-43
-40
-26
-20
-24
-30
-29
-18
-15
-23
-22
-20
-22
-18
-13
-15
-14
-15
-16
-17
-13
-2
5
4
-3
-1
9
13
7
-2
-4
3
2
-14
-25
-30
-26
-22
-19
-15
-16
-18
-18
-20
-24
-20
-7
-2
-6
-6
-3
-1
-10
-24
-22
-14
-15
-20
-29
-31
-30
-30
-25
-19
-24
-28
-12
1
-4
-10
-7
2
11
16
13
8
7
7
2
2
8
4
-6
-8
-2
6
7
-9
-18
-21
-22
-21
-16
-12
-15
-21
-9
5
5
-2
-7
1
6
-5
-17
-23
-22
-21
-31
-49
-62
-73
-77
-85
-99
-89
-90
-121
-87
-69
-63
-184
-122
-135
-158
-175
-178
-166
-169
-196
-224
-223
-236
-250
-255
-275
-267
-256
-257
-255
-249
-237
-210
-193
-193
-191
-182
-169
-169
-171
-161
-141
-141
-144
-133
-127
-124
-131
-138
-138
-129
-123
-112
-99
-99
-102
-94
-74
-71
-82
-83
-77
-76
-90
-101
-99
-102
-102
-102
-98
-103
-107
-105
-97
-101
-107
-83
-66
-71
-71
-55
-30
-26
-25
-21
-11
1
0
0
1
-3
-7
-4
4
0
-15
-17
-4
6
1
-6
4
21
33
38
44
52
60
68
77
93
115
137
158
179
193
216
242
250
248
252
274
302
316
313
307
326
345
351
350
353
356
363
358
342
319
314
315
301
278
265
248
223
195
175
160
146
136
116
94
69
54
33
5
-20
-41
-57
-72
-97
-126
-144
-159
-171
-174
-181
-198
-205
-198
-194
-184
-187
-192
-181
-161
-146
-136
-128
-116
-105
-90
-69
-55
-38
-21
-3
11
24
48
66
89
111
142
176
196
201
197
215
242
246
235
239
257
259
259
273
298
331
374
431
490
554
623
696
779
862
954
1055
1149
1213
1260
1312
1345
1349
1332
1313
1296
1257
1208
1155
1094
1015
921
824
733
641
536
425
322
218
110
-2
-113
-225
-330
-435
-540
-648
-758
-848
-923
-999
-1070
-1124
-1162
-1194
-1224
-1239
-1240
-1230
-1217
-1189
-1152
-1104
-1046
-993
-940
-883
-821
-764
-717
-682
-649
-618
-595
-588
-584
-586
-590
-607
-628
-639
-658
-676
-674
-648
-617
-581
-537
-502
-475
-447
-400
-338
-289
-254
-212
-145
-69
-8
33
75
141
191
221
254
286
319
336
353
360
359
352
334
319
294
287
291
283
269
274
297
311
311
316
332
340
340
341
350
352
346
344
350
372
380
368
371
400
425
429
437
459
486
498
494
500
514
508
497
492
477
442
408
368
327
280
230
192
150
91
27
-26
-70
-120
-175
-231
-278
-319
-355
-394
-432
-463
-489
-512
-517
-515
-521
-522
-513
-499
-492
-491
-486
-486
-491
-496
-492
-508
-525
-539
-557
-561
-562
-568
-580
-587
-583
-573
-559
-541
-515
-473
-421
-373
-324
-271
-211
-142
-63
8
68
137
213
281
338
399
455
510
568
622
663
700
729
755
773
788
807
824
840
845
840
838
843
839
815
796
793
783
757
719
685
649
613
571
524
478
436
389
348
303
263
219
169
135
105
68
29
1
-26
-53
-83
-113
-131
-152
-180
-212
-234
-245
-249
-260
-290
-302
-293
-283
-288
-306
-309
-301
-292
-295
-298
-295
-288
-284
-291
-301
-312
-307
-300
-303
-311
-314
-312
-300
-291
-288
-278
-250
-226
-214
-208
-189
-164
-155
-147
-128
-105
-83
-64
-45
-28
-11
10
27
38
52
57
68
91
118
131
138
157
176
197
205
206
209
215
220
220
218
214
212
216
213
199
181
176
178
162
143
135
131
123
107
84
78
83
72
55
38
37
44
30
8
3
8
-2
-17
-10
-2
-6
-19
-25
-29
-33
-41
-41
-36
-41
-52
-48
-41
-40
-50
-45
-31
-27
-27
-30
-28
-12
-5
-4
-1
7
16
26
38
57
75
80
93
112
117
125
132
135
136
140
141
139
137
143
148
140
129
120
119
116
110
108
114
122
124
120
122
131
140
140
138
135
139
134
115
102
97
94
96
94
85
83
79
67
55
52
55
56
44
29
25
24
11
-2
-7
-12
-24
-39
-46
-58
-70
-77
-84
-97
-110
-126
-137
-137
-137
-138
-143
-149
-148
-144
-143
-147
-147
-146
-147
-151
-155
-155
-157
-167
-168
-166
-173
-177
-177
-181
-187
-185
-174
-159
-151
-161
-173
-164
-153
-157
-162
-148
-131
-132
-135
-133
-130
-130
-119
-108
-104
-102
-105
-98
-88
-83
-70
-54
-38
-26
-25
-16
-2
5
4
24
50
52
56
69
78
70
61
66
72
62
41
40
55
62
56
50
56
68
66
61
63
51
34
20
16
2
-19
-34
-46
-57
-71
-83
-81
-88
-111
-124
-111
-106
-115
-119
-121
-124
-117
-110
-110
-117
-119
-111
-105
-102
-102
-101
-89
-74
-62
-57
-56
-54
-49
-44
-36
-24
-15
-10
-5
2
6
6
3
-2
3
9
11
3
-6
-2
-1
-4
-9
-15
-19
-24
-25
-26
-19
-17
-21
-23
-23
-29
-44
-53
-62
-73
-78
-71
-70
-74
-72
-63
-62
-70
-68
-66
-66
-70
-62
-47
-52
-61
-59
-43
-41
-51
-56
-45
-39
-54
-70
-61
-56
-69
-74
-64
-56
-59
-70
-66
-57
-62
-74
-76
-63
-61
-71
-75
-72
-73
-79
-83
-80
-83
-92
-94
-87
-93
-102
-106
-101
-102
-108
-104
-97
-91
-88
-88
-87
-88
-75
-65
-69
-78
-78
-76
-78
-72
-66
-65
-51
-27
-23
-32
-27
-11
0
1
6
29
44
35
30
45
59
61
60
73
89
97
91
82
81
88
89
90
90
83
81
83
88
83
75
79
95
99
89
82
88
95
84
77
82
90
91
78
67
68
69
60
50
49
52
53
55
61
64
61
64
68
66
59
60
67
70
64
60
65
68
65
60
57
57
53
53
52
46
48
63
76
84
84
87
95
99
99
94
96
104
110
109
102
106
111
113
121
128
124
109
108
115
104
89
96
113
106
92
84
82
73
70
71
74
71
53
44
36
33
20
-3
-14
-16
-25
-36
-38
-33
-32
-38
-40
-31
-24
-25
-31
-33
-40
-40
-39
-35
-34
-32
-22
-8
-2
-4
4
10
20
26
38
59
78
85
86
90
93
92
85
89
98
96
94
92
90
92
98
103
96
87
82
70
61
52
47
44
49
55
54
52
54
50
48
43
44
44
34
27
17
13
8
3
-8
-16
-24
-34
-40
-40
-41
-42
-36
-33
-33
-31
-38
-57
-65
-65
-66
-67
-70
-71
-66
-59
-64
-59
-52
-54
-56
-51
-50
-40
-25
-21
-28
-27
-6
7
5
-3
2
12
10
3
7
19
24
24
28
23
22
18
13
10
17
29
44
47
36
34
45
44
35
26
30
30
19
12
11
14
4
-13
-21
-27
-38
-57
-69
-69
-76
-86
-96
-97
-99
-105
-101
-99
-109
-119
-122
-120
-123
-141
-149
-150
-157
-166
-179
-179
-180
-185
-183
-170
-161
-154
-153
-149
-141
-132
-121
-111
-112
-106
-95
-95
-97
-97
-86
-73
-57
-53
-54
-42
-20
-10
-3
21
49
58
52
54
65
81
81
69
77
94
103
106
104
112
126
125
118
117
122
128
135
148
151
159
165
174
186
199
212
228
249
271
300
341
391
442
491
543
591
627
667
698
727
748
752
752
738
705
656
614
567
512
446
366
269
151
9
-167
-366
-568
-763
-943
-1106
-1254
-1378
-1481
-1561
-1609
-1628
-1606
-1555
-1498
-1437
-1359
-1265
-1179
-1097
-1010
-911
-810
-719
-635
-561
-501
-450
-415
-380
-345
-325
-311
-287
-266
-237
-213
-187
-148
-95
-36
24
96
189
294
398
504
618
733
830
911
983
1052
1107
1135
1145
1149
1146
1132
1114
1086
1041
1001
963
916
854
796
745
685
610
553
523
486
440
400
376
356
324
276
233
203
185
175
162
148
130
114
99
81
59
31
12
-4
-28
-66
-112
-127
-131
-152
-183
-201
-215
-236
-268
-298
-324
-350
-372
-387
-395
-408
-422
-433
-437
-437
-441
-444
-436
-416
-403
-385
-359
-336
-310
-284
-263
-245
-220
-178
-144
-122
-111
-99
-73
-51
-38
-23
6
41
70
88
106
118
126
135
141
142
135
121
103
79
50
31
24
5
-33
-64
-85
-109
-152
-195
-224
-234
-247
-268
-286
-293
-284
-275
-272
-262
-241
-217
-184
-144
-113
-81
-40
-5
24
49
75
110
128
132
148
167
166
158
149
143
138
127
114
99
82
71
66
54
40
27
19
-4
-19
-21
-18
-22
-17
-10
-4
-14
-18
-11
-1
0
-7
-8
-7
2
8
7
0
8
29
35
28
24
30
37
32
24
20
23
21
16
13
0
-8
-9
-10
-12
-13
-8
-3
-5
-6
-1
6
7
8
3
-4
-9
-8
-14
-23
-31
-35
-40
-45
-46
-44
-52
-57
-63
-77
-87
-95
-97
-96
-99
-108
-120
-116
-112
-122
-137
-138
-134
-139
-161
-182
-179
-172
-179
-183
-175
-169
-171
-181
-183
-177
-175
-167
-152
-146
-150
-143
-133
-129
-126
-123
-119
-120
-125
-126
-118
-111
-109
-116
-123
-112
-95
-89
-85
-69
-56
-57
-54
-37
-24
-20
-15
-13
-11
2
8
0
4
21
30
28
30
38
52
51
49
45
57
82
98
89
79
93
115
117
110
111
115
122
117
95
93
99
101
97
101
105
98
80
74
70
64
65
76
79
72
67
74
81
69
52
55
73
73
57
53
58
53
34
16
11
8
0
-18
-38
-42
-33
-36
-51
-58
-57
-60
-71
-86
-96
-96
-102
-118
-126
-123
-119
-124
-129
-133
-127
-130
-142
-144
-130
-119
-123
-135
-134
-124
-130
-149
-154
-147
-149
-161
-170
-175
-179
-185
-181
-174
-177
-182
-180
-179
-189
-197
-190
-171
-157
-157
-159
-149
-135
-133
-132
-123
-102
-94
-98
-87
-76
-75
-77
-69
-57
-66
-73
-62
-53
-56
-61
-63
-56
-38
-32
-37
-34
-29
-28
-33
-33
-15
-1
-3
-2
5
5
8
19
30
34
38
55
73
80
77
77
88
90
90
82
85
87
79
63
55
54
50
42
42
48
43
32
28
25
19
18
27
29
24
28
37
49
46
40
43
58
63
57
54
60
70
74
76
80
86
82
84
92
100
104
112
122
134
143
150
166
177
185
188
194
201
208
215
224
236
237
236
246
260
265
256
257
269
279
277
276
281
287
288
285
285
291
292
280
270
266
251
240
239
238
228
213
199
185
176
169
162
162
160
149
136
125
128
123
109
109
120
123
109
93
89
88
77
63
59
52
30
20
38
47
35
23
29
39
31
19
22
28
27
21
19
17
14
11
11
14
15
13
19
18
4
-4
7
27
37
33
26
31
33
25
20
19
22
17
7
-4
-15
-17
-14
-15
-17
-25
-37
-44
-48
-48
-55
-59
-52
-44
-48
-62
-60
-46
-42
-49
-43
-29
-25
-31
-37
-35
-38
-44
-51
-61
-63
-64
-64
-62
-54
-56
-57
-54
-55
-63
-66
-73
-74
-73
-74
-80
-79
-74
-69
-63
-64
-64
-62
-66
-71
-64
-52
-44
-38
-39
-39
-34
-32
-31
-38
-45
-37
-25
-26
-30
-28
-23
-15
-14
-12
-9
-6
-8
-7
-5
-4
6
18
27
24
27
36
32
27
23
20
10
5
3
-6
-15
-24
-38
-45
-47
-48
-58
-67
-70
-73
-79
-80
-76
-74
-73
-65
-55
-59
-68
-64
-52
-49
-68
-75
-64
-65
-77
-76
-70
-74
-83
-90
-78
-58
-51
-59
-55
-35
-21
-13
-9
-3
8
17
16
12
13
29
39
37
37
35
28
18
10
12
18
25
26
21
25
28
28
19
14
14
14
17
23
28
17
11
9
-3
-11
-7
-9
-21
-29
-21
-14
-26
-35
-37
-38
-36
-33
-42
-50
-46
-46
-55
-51
-50
-51
-63
-71
-73
-72
-71
-75
-88
-86
-68
-52
-55
-62
-56
-40
-38
-41
-31
-28
-30
-31
-29
-26
-28
-27
-28
-31
-29
-31
-42
-46
-51
-61
-65
-54
-47
-57
-61
-54
-51
-59
-64
-54
-56
-71
-79
-80
-89
-105
-117
-116
-113
-120
-127
-132
-122
-116
-115
-117
-110
-103
-101
-99
-94
-89
-90
-91
-91
-91
-89
-79
-63
-57
-67
-65
-55
-51
-57
-60
-50
-40
-29
-30
-33
-30
-23
-16
-16
-19
-17
-17
-17
-18
-22
-21
-17
-13
-14
-17
-19
-24
-26
-22
-18
-11
-8
-6
-8
-2
7
18
28
43
56
66
69
68
70
73
74
71
73
73
67
66
66
73
80
80
82
85
87
81
81
90
91
79
66
70
74
70
66
69
65
60
66
74
74
63
57
73
87
87
79
84
100
114
104
98
103
100
93
82
77
81
84
77
73
74
67
56
47
43
42
40
52
61
57
54
55
53
45
41
41
44
42
33
26
19
16
13
4
-1
-2
-12
-19
-20
-22
-30
-41
-42
-39
-41
-44
-48
-49
-58
-65
-73
-78
-78
-76
-66
-67
-72
-69
-58
-49
-54
-61
-49
-40
-39
-44
-50
-40
-33
-29
-31
-24
-11
-7
-8
-12
-8
-4
-14
-23
-17
-12
-24
-33
-28
-21
-29
-20
0
10
1
-3
12
14
4
-11
-19
-8
-9
-20
-31
-38
-40
-54
-61
-58
-63
-72
-67
-51
-35
-39
-36
-19
2
9
14
28
41
39
32
26
24
22
17
3
-5
-3
-7
-21
-32
-35
-32
-26
-18
-10
-2
1
4
8
7
6
3
6
7
-1
-6
3
11
4
-5
-8
-20
-33
-44
-54
-57
-54
-49
-48
-55
-56
-58
-59
-62
-72
-76
-69
-62
-65
-68
-70
-70
-67
-78
-78
-72
-64
-59
-66
-58
-39
-33
-39
-33
-18
-10
-17
-21
-10
-5
-11
-12
-7
-7
-9
-6
-10
-17
-14
-6
-11
-20
-19
-1
10
4
4
13
18
18
13
14
23
35
43
39
42
45
53
57
58
53
53
48
50
53
48
56
66
66
53
48
52
61
62
59
69
81
80
81
93
101
107
105
104
110
110
108
112
119
126
133
137
137
138
135
133
131
133
135
137
130
132
140
135
127
123
120
114
110
111
108
101
100
104
99
83
70
65
72
71
59
54
64
68
53
51
63
75
74
67
69
71
70
58
51
58
73
78
75
72
69
71
63
54
50
47
44
40
38
39
31
14
12
13
10
1
0
4
4
11
15
9
-4
-8
2
5
0
-2
1
-3
-13
-14
-13
-19
-30
-33
-35
-45
-49
-43
-43
-55
-57
-38
-25
-39
-57
-52
-37
-39
-52
-55
-46
-40
-46
-56
-64
-73
-84
-93
-101
-115
-134
-143
-146
-154
-175
-185
-176
-173
-191
-203
-202
-203
-206
-210
-203
-193
-192
-186
-185
-198
-210
-212
-205
-196
-192
-190
-183
-172
-156
-148
-142
-134
-127
-130
-132
-117
-107
-94
-85
-79
-68
-70
-75
-69
-59
-54
-46
-40
-40
-42
-38
-19
-8
-14
-22
-25
-8
15
22
15
23
42
49
36
28
28
25
18
6
0
2
5
9
10
8
3
1
-4
-19
-35
-32
-24
-27
-41
-50
-38
-31
-46
-55
-58
-67
-84
-107
-123
-134
-142
-142
-137
-137
-140
-149
-162
-150
-130
-130
-160
-182
-169
-151
-157
-172
-173
-174
-171
-158
-156
-172
-176
-159
-155
-165
-171
-155
-129
-125
-146
-166
-152
-125
-106
-110
-120
-115
-103
-106
-115
-110
-85
-74
-73
-79
-68
-45
-39
-37
-28
0
28
39
30
34
69
96
98
98
117
153
166
142
131
155
181
175
160
177
207
211
188
180
190
189
168
157
169
171
142
115
94
82
61
23
-19
-53
-77
-103
-136
-173
-197
-207
-232
-268
-293
-307
-308
-312
-322
-330
-330
-327
-327
-324
-328
-332
-328
-323
-321
-316
-295
-277
-265
-253
-243
-226
-208
-186
-150
-98
-63
-50
-20
25
60
64
73
98
135
169
197
218
228
243
262
277
272
267
287
324
380
443
512
607
703
787
860
928
1009
1089
1156
1209
1246
1265
1273
1274
1259
1225
1181
1141
1091
1024
942
855
782
716
646
561
468
372
275
170
53
-59
-163
-266
-369
-485
-591
-681
-773
-862
-946
-1021
-1088
-1153
-1200
-1229
-1242
-1257
-1263
-1242
-1198
-1150
-1108
-1063
-996
-920
-853
-798
-741
-671
-609
-566
-525
-470
-412
-378
-361
-335
-315
-304
-292
-286
-282
-286
-283
-280
-298
-307
-287
-258
-251
-242
-212
-179
-149
-109
-60
-5
47
98
153
229
297
350
400
465
537
585
603
614
646
682
696
697
709
728
740
743
739
737
740
726
710
700
693
671
644
625
589
541
512
511
512
491
462
447
441
425
393
363
332
294
261
224
189
146
90
38
-6
-67
-140
-194
-223
-240
-260
-283
-282
-263
-263
-271
-268
-256
-254
-270
-282
-277
-272
-284
-298
-307
-322
-338
-350
-382
-433
-471
-478
-479
-495
-531
-557
-574
-587
-614
-639
-662
-687
-699
-719
-755
-781
-780
-788
-798
-793
-781
-777
-770
-756
-738
-690
-624
-569
-511
-440
-359
-290
-206
-99
7
102
187
292
401
497
601
701
792
880
962
1025
1071
1107
1150
1190
1205
1209
1228
1235
1207
1170
1142
1103
1052
1000
946
873
780
696
613
522
414
304
194
72
-54
-169
-267
-363
-468
-574
-668
-749
-828
-904
-968
-1015
-1046
-1068
-1092
-1109
-1116
-1112
-1089
-1055
-1025
-1005
-970
-917
-867
-828
-780
-714
-651
-611
-576
-517
-435
-363
-322
-285
-220
-149
-90
-61
-27
16
52
81
119
152
164
184
219
246
255
254
262
271
269
262
260
259
259
254
223
190
176
159
131
93
63
42
23
-5
-36
-56
-52
-50
-65
-94
-113
-115
-127
-145
-164
-165
-159
-152
-149
-166
-172
-156
-145
-142
-143
-134
-123
-122
-122
-113
-102
-97
-89
-68
-48
-45
-45
-38
-24
2
26
23
22
42
65
69
64
68
85
104
113
105
103
110
127
140
138
143
155
159
159
165
160
160
167
166
160
161
176
181
181
190
208
217
216
219
232
248
266
272
274
270
273
284
289
285
289
303
305
293
281
277
275
263
243
235
234
223
214
212
208
198
194
196
189
178
169
160
151
145
139
137
130
117
112
115
121
115
97
92
94
98
93
94
106
113
114
98
90
93
96
87
72
66
65
65
62
45
23
17
25
15
-3
-10
-18
-40
-64
-67
-59
-58
-64
-74
-71
-75
-88
-97
-108
-109
-108
-104
-110
-118
-112
-96
-91
-93
-89
-79
-68
-62
-55
-48
-40
-26
-7
4
10
27
49
53
54
68
90
107
107
112
128
142
140
139
145
152
154
147
153
169
177
175
165
157
150
144
140
146
160
169
158
153
158
165
161
149
147
145
134
129
121
113
115
133
147
144
141
146
165
171
159
152
167
179
177
173
171
177
190
194
190
195
205
204
199
197
201
202
216
227
226
224
222
223
215
195
182
175
156
138
124
110
93
68
63
67
59
31
9
18
29
10
-7
-11
2
4
-13
-18
-15
-18
-29
-33
-33
-44
-48
-37
-22
-25
-34
-27
-11
-15
-37
-39
-17
-6
-10
-17
-18
-11
-7
-5
-10
-6
3
-2
-7
-7
-18
-18
-22
-29
-28
-28
-36
-45
-47
-50
-39
-32
-20
-20
-20
-18
-17
-19
-25
-38
-38
-24
-27
-36
-41
-42
-36
-46
-64
-64
-62
-83
-87
-78
-84
-101
-116
-111
-118
-121
-120
-119
-116
-113
-119
-132
-140
-146
-153
-153
-158
-170
-164
-162
-166
-178
-179
-156
-143
-138
-156
-172
-172
-165
-170
-167
-163
-159
-164
-158
-145
-141
-136
-130
-122
-118
-114
-108
-103
-101
-99
-91
-75
-63
-58
-45
-43
-40
-24
-19
-16
-6
-1
2
-1
3
0
-27
-43
-39
-33
-40
-57
-52
-32
-28
-45
-53
-45
-30
-29
-33
-25
-13
-10
-11
-11
-14
-16
-16
-7
2
-4
-9
-11
-12
-20
-18
-7
5
3
8
21
15
8
9
8
8
4
1
-2
-10
-16
-25
-26
-7
-7
-28
-38
-28
-33
-47
-51
-43
-40
-41
-47
-51
-47
-40
-50
-65
-62
-59
-66
-81
-83
-92
-97
-91
-87
-79
-77
-77
-75
-66
-55
-62
-70
-65
-58
-62
-68
-71
-67
-74
-86
-88
-90
-98
-111
-111
-114
-117
-123
-119
-118
-121
-125
-119
-107
-91
-86
-88
-86
-80
-71
-64
-52
-46
-38
-33
-38
-40
-32
-11
-12
-11
4
15
3
-5
-2
0
4
7
18
18
30
42
35
14
14
19
19
8
1
5
7
10
4
-7
-5
-1
-15
-28
-26
-28
-31
-37
-37
-38
-35
-44
-28
-69
-38
-35
-6
-96
-76
-56
-58
-56
-65
-52
-28
-44
-70
-59
-55
-64
-49
-55
-49
-37
-37
-33
-27
-29
-18
-15
-13
-16
-36
-43
-32
-15
-16
-11
-7
-5
0
-9
-18
-1
12
29
43
37
35
46
57
59
59
65
66
70
73
73
69
58
54
62
67
52
41
47
52
55
51
47
49
39
43
55
53
47
50
54
48
40
40
42
45
45
38
43
44
29
18
28
40
45
46
51
48
43
34
35
32
26
24
20
11
1
-3
5
6
-6
-11
-10
-16
-30
-36
-45
-46
-39
-37
-34
-37
-38
-36
-45
-45
-45
-47
-51
-58
-58
-56
-70
-80
-68
-51
-47
-68
-67
-52
-46
-47
-50
-43
-40
-40
-22
-1
6
8
14
22
38
50
63
75
91
120
142
153
163
171
187
206
223
234
257
285
321
365
401
447
516
568
596
627
652
666
689
712
749
776
788
807
815
790
754
712
686
644
560
430
278
120
-57
-272
-501
-706
-901
-1087
-1236
-1359
-1481
-1559
-1600
-1616
-1620
-1596
-1533
-1441
-1369
-1300
-1205
-1103
-1012
-921
-826
-723
-630
-557
-500
-444
-393
-360
-351
-331
-285
-247
-235
-225
-196
-158
-136
-124
-78
-10
60
135
220
309
411
506
598
682
772
853
928
992
1027
1041
1060
1072
1075
1056
1039
1021
988
932
873
831
785
721
671
627
569
520
478
427
376
328
293
248
208
168
133
100
64
30
5
-25
-51
-61
-79
-93
-126
-148
-152
-159
-185
-201
-206
-205
-223
-243
-252
-260
-281
-301
-315
-330
-347
-362
-370
-379
-393
-393
-387
-384
-377
-365
-363
-373
-367
-340
-329
-340
-336
-305
-277
-267
-257
-233
-206
-193
-176
-148
-130
-115
-89
-55
-39
-24
-1
13
11
-13
-20
-22
-50
-93
-116
-137
-165
-193
-218
-247
-271
-299
-321
-328
-333
-353
-360
-354
-346
-337
-341
-336
-306
-283
-264
-241
-198
-158
-151
-122
-75
-48
-41
-23
2
15
23
38
61
69
60
56
74
91
93
74
67
73
69
67
73
73
74
85
80
64
60
65
69
65
62
70
73
61
51
64
74
79
72
79
93
99
90
85
94
107
104
102
110
128
122
118
125
124
130
137
133
135
145
161
161
151
165
177
173
164
177
186
196
199
190
202
215
216
212
220
240
238
212
205
219
216
205
196
199
209
214
192
178
172
164
148
146
134
120
102
84
73
57
45
44
31
29
20
8
-3
-5
-4
4
12
11
8
14
18
17
13
7
-9
-20
-25
-16
-6
-5
1
10
21
30
24
28
26
21
21
21
22
31
49
42
34
49
55
45
36
37
48
39
31
31
43
45
21
-3
12
19
-17
-38
-17
6
-1
-15
-7
13
14
0
-2
9
22
11
-15
-13
1
-6
-15
-13
-12
-17
-38
-47
-35
-28
-41
-46
-21
-7
-14
-22
-23
-25
-33
-55
-59
-44
-42
-60
-76
-68
-62
-68
-63
-66
-78
-95
-88
-70
-78
-87
-75
-56
-50
-46
-53
-39
-28
-33
-27
-16
-13
-23
-23
-10
-13
-29
-19
0
-2
-17
-25
-3
15
4
-20
-21
-14
-28
-35
-37
-44
-47
-36
-27
-6
21
33
13
-25
-102
-213
-336
-425
-494
-558
-585
-545
-474
-408
-356
-300
-224
-161
-122
-89
-37
28
90
141
198
268
325
351
379
414
432
430
413
411
423
406
376
351
335
317
292
271
252
237
211
182
164
150
137
124
109
93
84
80
88
80
76
77
91
101
96
88
89
99
107
97
83
81
83
72
46
34
42
48
29
12
-1
-11
-27
-34
-37
-43
-59
-53
-42
-59
-86
-89
-82
-98
-118
-137
-139
-138
-143
-150
-158
-152
-160
-171
-167
-153
-155
-156
-148
-136
-142
-149
-159
-155
-145
-140
-142
-139
-133
-128
-135
-136
-126
-110
-111
-112
-105
-92
-94
-100
-94
-83
-81
-82
-74
-73
-84
-82
-66
-65
-64
-52
-28
-9
-12
-25
-12
6
-3
-16
0
15
8
-9
-14
-9
-8
-16
-14
-3
3
-4
-19
-19
-16
-26
-37
-39
-38
-53
-68
-79
-79
-79
-97
-111
-103
-103
-110
-116
-119
-122
-130
-134
-125
-135
-148
-146
-127
-128
-135
-135
-136
-144
-153
-149
-138
-135
-133
-128
-119
-108
-103
-98
-91
-73
-51
-48
-60
-48
-28
-27
-36
-34
-13
-3
-8
-10
1
15
12
14
27
30
9
-5
2
6
4
7
22
28
21
17
27
32
26
21
24
32
32
21
12
5
5
3
-6
-1
6
3
-1
4
17
18
7
-1
3
3
0
6
11
4
3
8
16
16
18
23
25
25
17
11
11
7
-3
-3
14
29
21
11
19
38
30
14
18
31
31
17
7
8
3
-5
7
8
-2
-14
-12
-7
-13
-11
-16
-7
4
1
-6
2
22
25
22
33
49
58
60
66
76
91
100
102
108
104
99
101
104
106
102
99
102
102
102
100
101
95
77
75
79
71
56
37
39
53
53
39
34
39
36
20
16
32
40
31
21
18
19
16
6
5
8
19
13
-9
-14
-10
-9
-8
-9
-18
-33
-38
-39
-52
-62
-50
-43
-47
-61
-63
-53
-51
-59
-68
-68
-60
-67
-72
-63
-52
-45
-42
-35
-23
-14
-9
-5
3
26
41
38
40
55
71
76
72
75
88
91
78
82
103
108
102
101
105
105
102
96
99
103
109
123
130
124
111
113
117
112
97
93
91
83
77
59
41
35
26
18
14
11
7
14
7
3
2
4
13
21
10
-6
-7
-6
-11
-20
-23
-31
-36
-40
-51
-69
-77
-78
-90
-105
-113
-109
-107
-117
-117
-111
-109
-115
-118
-118
-120
-117
-114
-119
-118
-103
-96
-97
-103
-101
-90
-90
-98
-103
-100
-103
-112
-115
-104
-98
-97
-106
-110
-98
-85
-89
-93
-80
-67
-65
-71
-73
-63
-57
-55
-41
-33
-34
-27
-13
-13
-19
-12
8
17
16
19
31
44
43
35
41
61
64
56
53
61
60
48
38
35
34
31
21
10
9
10
5
-3
-10
-9
-5
-11
-16
-14
-6
-8
-26
-36
-27
-23
-29
-37
-41
-37
-38
-43
-39
-27
-18
-12
-9
-8
-8
-8
1
14
18
16
18
22
17
4
0
1
5
6
4
2
4
2
0
-4
-2
5
18
24
16
14
29
34
14
-2
3
21
10
-5
-9
-7
-13
-7
-1
-11
-16
-23
-23
-19
-11
-25
-37
-29
-11
-15
-26
-21
-1
1
-20
-25
-15
-5
-13
-15
-6
-4
-4
-6
-3
-2
5
10
12
16
17
20
15
18
25
24
21
20
25
21
9
9
17
17
22
25
26
25
23
23
20
11
12
21
34
36
31
30
35
31
19
11
20
26
22
22
22
28
34
36
42
50
50
53
65
81
90
84
83
95
100
102
101
102
109
106
97
94
91
91
100
105
101
95
92
85
75
69
73
82
90
85
74
69
77
85
77
67
64
70
76
64
59
58
55
56
54
46
35
29
29
28
26
24
31
34
32
30
28
35
40
41
44
50
58
56
58
60
56
50
43
41
37
34
30
30
44
53
41
30
41
54
50
39
46
56
58
44
40
47
49
42
40
41
38
37
39
40
31
29
40
59
60
45
35
35
38
39
26
22
22
19
14
10
11
10
15
23
23
10
-3
-3
-6
-21
-27
-13
-7
-20
-34
-27
-13
-16
-25
-25
-16
-16
-28
-28
-20
-19
-30
-36
-36
-24
-16
-23
-28
-27
-20
-21
-21
-14
-15
-15
-9
-4
-7
-8
-14
-23
-22
-15
-18
-23
-20
-12
-12
-17
-21
-16
-10
-9
9
18
17
15
32
52
45
43
52
76
89
78
61
67
74
63
63
62
53
41
39
48
46
38
40
49
45
31
24
30
31
18
1
-3
2
-6
-18
-21
-15
-31
-54
-58
-44
-44
-63
-70
-63
-49
-45
-48
-43
-28
-20
-23
-21
-11
-7
-3
-4
4
21
26
27
37
41
38
35
35
26
8
5
19
25
10
2
1
-3
-14
-19
-17
-11
-11
-17
-16
-11
-8
-15
-16
-6
-2
-4
-4
1
-3
-5
-1
8
14
11
5
9
14
16
8
-4
-4
-3
-13
-28
-33
-34
-50
-61
-55
-51
-63
-73
-68
-62
-72
-93
-99
-97
-93
-95
-100
-98
-94
-94
-103
-100
-95
-99
-97
-90
-96
-106
-99
-93
-95
-100
-91
-72
-54
-55
-60
-59
-47
-47
-52
-57
-60
-54
-46
-46
-57
-61
-59
-58
-65
-73
-76
-82
-91
-92
-99
-102
-90
-77
-75
-85
-86
-71
-65
-76
-81
-75
-62
-63
-65
-64
-57
-56
-63
-62
-54
-54
-65
-65
-51
-41
-54
-66
-59
-46
-51
-64
-53
-42
-45
-50
-41
-31
-27
-22
-19
-13
-13
-11
-4
2
1
-5
9
30
37
23
21
32
39
47
56
67
79
95
110
121
125
129
144
163
182
192
193
201
222
237
244
245
250
253
239
224
222
211
185
159
144
131
106
73
41
13
-22
-63
-103
-126
-152
-197
-247
-267
-285
-329
-365
-382
-405
-426
-454
-477
-491
-498
-510
-525
-529
-520
-524
-537
-527
-506
-497
-495
-484
-472
-460
-438
-418
-398
-381
-366
-345
-320
-290
-263
-229
-186
-146
-127
-100
-56
-18
5
25
55
86
101
101
106
128
155
182
213
251
286
323
388
470
542
612
702
799
883
959
1034
1102
1160
1206
1227
1249
1275
1273
1243
1213
1196
1169
1111
1037
969
901
824
725
628
538
420
298
200
101
-16
-133
-230
-325
-428
-525
-609
-681
-742
-802
-859
-898
-923
-961
-996
-1013
-1013
-1009
-990
-963
-916
-874
-822
-771
-714
-648
-580
-523
-470
-420
-387
-349
-320
-295
-273
-248
-234
-234
-244
-256
-268
-283
-312
-329
-339
-363
-390
-404
-401
-403
-423
-425
-407
-388
-379
-353
-306
-259
-220
-174
-113
-55
-10
39
103
167
210
254
309
365
419
464
505
550
591
607
619
635
653
662
662
660
665
678
683
674
663
642
597
554
547
558
532
466
406
372
339
286
238
204
179
147
113
103
103
102
92
98
111
116
113
128
154
159
161
159
164
170
168
158
148
141
134
104
82
62
29
-9
-34
-41
-70
-121
-163
-214
-268
-315
-376
-440
-503
-571
-651
-712
-766
-821
-862
-890
-910
-925
-934
-942
-947
-936
-915
-900
-868
-829
-798
-744
-664
-593
-520
-431
-326
-219
-116
-17
89
208
324
434
537
644
737
819
894
961
1037
1113
1178
1227
1263
1292
1300
1304
1311
1294
1262
1230
1199
1156
1093
1025
959
885
794
696
595
490
381
276
179
81
-21
-117
-211
-294
-366
-431
-499
-562
-600
-633
-673
-713
-731
-725
-718
-719
-721
-699
-674
-653
-634
-585
-532
-495
-453
-399
-350
-292
-252
-228
-192
-149
-112
-86
-60
-34
-2
25
31
35
59
71
56
40
43
42
22
20
31
18
-3
-14
-21
-38
-60
-71
-80
-88
-103
-116
-132
-147
-164
-179
-188
-194
-203
-209
-211
-214
-206
-207
-210
-213
-217
-224
-223
-220
-222
-238
-243
-240
-230
-228
-231
-225
-207
-193
-178
-168
-158
-143
-120
-97
-72
-46
-37
-35
-19
3
21
35
52
73
94
105
106
103
113
124
134
134
120
113
114
115
113
98
110
118
116
103
103
115
122
120
114
117
121
121
122
132
134
134
123
121
130
137
135
132
141
148
143
127
114
108
104
96
84
72
73
75
51
26
22
19
21
9
0
9
15
18
2
-8
3
10
18
15
5
-1
3
17
21
16
22
23
23
15
10
9
4
6
20
30
38
51
70
77
75
90
108
97
84
85
82
72
61
55
50
62
60
54
57
60
62
50
46
52
50
41
35
37
35
43
34
13
5
12
10
-4
-7
6
8
-1
3
12
6
-2
-4
-10
-15
-20
-22
-21
-31
-33
-22
-9
-2
-8
-19
-16
-4
-4
-16
-18
-9
-2
-3
-21
-32
-31
-21
-11
-7
-6
3
8
10
12
13
14
24
35
26
14
32
40
19
17
31
26
21
38
44
34
29
32
29
37
38
21
22
35
36
27
32
39
35
23
21
36
41
25
16
18
23
18
5
-2
-5
2
-1
-4
-4
-4
-7
-3
5
15
13
8
12
19
18
10
7
6
-1
-2
0
-9
-13
-23
-21
-19
-35
-54
-58
-58
-68
-72
-72
-71
-72
-63
-69
-78
-74
-74
-94
-95
-87
-75
-72
-65
-61
-58
-50
-42
-51
-51
-44
-41
-41
-19
1
-1
4
21
18
7
9
16
4
-10
-20
-25
-34
-36
-32
-40
-53
-68
-76
-82
-89
-99
-107
-99
-92
-89
-97
-99
-103
-103
-102
-98
-108
-106
-88
-76
-84
-90
-81
-70
-61
-60
-61
-52
-46
-52
-55
-53
-50
-39
-32
-33
-41
-35
-21
-23
-31
-25
-17
-13
-16
-13
-14
-29
-50
-58
-41
-29
-30
-26
-16
0
23
17
12
22
26
32
31
38
39
32
20
22
25
13
3
8
8
-7
-16
-9
-2
0
-15
-10
10
20
12
11
20
18
10
0
11
26
14
-8
-11
4
-4
-9
-4
9
9
9
21
30
33
33
39
51
60
57
52
61
60
61
51
53
71
72
63
57
54
55
50
35
36
35
24
19
22
14
-2
-22
-20
-13
-19
-32
-46
-40
-30
-42
-60
-68
-67
-62
-69
-75
-76
-82
-87
-83
-76
-72
-64
-57
-40
-50
-66
-62
-45
-40
-50
-55
-47
-21
-3
-22
-23
-10
-4
0
0
3
2
6
1
-1
3
7
5
1
-1
9
7
2
1
3
1
-3
-3
11
4
-8
-12
-7
-10
-19
-22
-18
-20
-28
-19
2
4
-4
-9
9
23
22
13
6
3
5
14
27
21
17
26
27
16
29
45
31
15
22
48
53
57
59
51
46
45
39
28
33
23
14
20
27
22
9
9
12
15
9
14
10
6
5
7
16
20
20
19
16
11
0
4
4
-7
-19
-20
-13
-20
-28
-37
-51
-52
-39
-43
-51
-59
-50
-36
-25
-30
-34
-30
-21
0
0
-18
-14
3
0
-7
-9
-4
2
-11
-19
3
7
-15
-9
4
5
8
12
11
19
32
17
8
29
43
38
38
48
42
32
31
32
36
52
48
35
37
50
41
23
39
51
47
55
67
55
45
51
58
50
52
53
49
54
55
46
37
32
36
34
36
34
23
29
28
12
-10
-12
-4
-15
-30
-33
-37
-37
-45
-67
-66
-72
-84
-86
-94
-109
-116
-119
-134
-138
-125
-129
-132
-121
-112
-119
-116
-107
-95
-85
-82
-81
-52
-26
-27
-26
-7
23
34
38
56
75
87
82
84
115
141
143
137
151
163
166
172
169
163
169
194
215
241
277
329
382
446
506
550
575
603
646
683
713
723
733
741
723
682
649
616
575
505
405
287
149
-13
-183
-375
-581
-781
-954
-1118
-1263
-1375
-1460
-1525
-1557
-1563
-1551
-1512
-1462
-1419
-1358
-1281
-1212
-1152
-1069
-979
-914
-846
-768
-691
-627
-577
-553
-529
-503
-484
-478
-473
-445
-429
-425
-414
-392
-375
-343
-269
-199
-133
-34
76
190
312
428
536
653
757
839
924
998
1057
1106
1156
1180
1179
1167
1167
1153
1117
1083
1042
987
932
897
843
775
713
667
629
577
519
470
436
383
316
271
246
216
175
138
103
74
40
-4
-27
-36
-52
-83
-103
-115
-122
-132
-144
-159
-173
-176
-188
-206
-211
-216
-225
-233
-245
-249
-246
-243
-249
-260
-257
-255
-241
-242
-237
-236
-227
-219
-208
-191
-168
-154
-142
-123
-105
-91
-74
-51
-48
-41
-21
-21
-13
10
23
14
15
25
35
35
36
48
65
85
101
121
155
174
178
190
216
227
216
204
193
179
159
134
104
73
45
8
-42
-83
-119
-164
-207
-230
-258
-292
-319
-330
-342
-349
-345
-325
-313
-303
-286
-265
-232
-200
-180
-151
-109
-77
-47
-7
17
30
36
52
70
87
112
131
123
120
144
156
159
169
167
158
158
168
173
163
152
141
148
151
145
145
143
144
143
128
121
120
122
126
121
109
108
110
105
87
70
58
56
55
46
34
24
18
2
-10
-9
-15
-23
-29
-35
-46
-45
-55
-58
-57
-64
-77
-87
-100
-107
-112
-111
-120
-127
-125
-126
-132
-126
-117
-117
-131
-139
-131
-138
-140
-134
-129
-138
-156
-155
-146
-134
-141
-157
-160
-156
-153
-158
-168
-181
-199
-212
-226
-254
-284
-316
-352
-368
-369
-352
-304
-218
-116
-7
95
178
233
276
291
273
236
207
180
145
103
51
6
-31
-72
-120
-170
-222
-273
-314
-342
-362
-377
-385
-394
-411
-416
-396
-385
-392
-385
-351
-324
-314
-299
-258
-220
-202
-163
-127
-92
-51
-28
-3
27
50
47
44
67
69
74
74
81
67
70
80
64
49
43
35
8
-11
-24
-30
-43
-60
-84
-110
-108
-100
-112
-144
-157
-154
-154
-152
-155
-158
-153
-160
-169
-158
-145
-150
-136
-109
-85
-81
-63
-31
-12
0
10
44
85
112
122
137
150
151
163
184
189
182
198
217
216
216
219
225
224
233
243
244
239
246
254
268
267
253
243
240
249
250
234
216
206
200
191
171
161
160
148
136
130
119
113
119
112
102
103
128
130
114
126
152
158
154
174
190
191
186
176
180
187
191
176
166
174
183
177
163
151
140
142
147
140
134
125
125
129
125
122
120
112
114
116
115
110
102
100
99
101
96
95
103
110
112
125
128
118
119
118
123
136
144
140
137
139
133
126
123
114
109
112
108
94
98
106
105
94
89
102
120
126
115
107
122
119
109
120
129
124
127
139
146
139
138
136
143
150
149
141
137
146
151
155
153
163
173
174
171
173
181
186
178
172
186
194
181
172
166
159
150
150
160
156
145
152
162
173
164
154
159
172
183
183
180
179
173
159
153
151
146
137
140
148
142
128
123
132
127
107
97
110
124
116
101
102
105
105
89
82
88
76
63
53
41
37
27
6
-12
-1
3
-19
-37
-40
-44
-49
-38
-36
-47
-54
-52
-62
-64
-58
-66
-75
-77
-71
-66
-66
-64
-59
-57
-60
-65
-61
-55
-54
-64
-70
-64
-55
-57
-56
-56
-64
-67
-62
-61
-80
-86
-91
-104
-108
-103
-107
-121
-132
-128
-123
-128
-145
-147
-124
-107
-111
-116
-103
-86
-84
-84
-73
-58
-58
-57
-52
-43
-43
-44
-42
-45
-39
-25
-38
-53
-44
-44
-64
-62
-49
-43
-47
-51
-55
-55
-49
-45
-50
-48
-56
-63
-73
-62
-57
-75
-79
-53
-37
-42
-45
-33
-17
-21
-25
-21
-12
-8
-12
-12
-4
-2
-7
-7
-3
-6
-23
-31
-14
-13
-38
-43
-30
-38
-64
-68
-57
-52
-57
-76
-81
-85
-87
-87
-83
-74
-72
-74
-79
-84
-83
-91
-82
-76
-96
-102
-96
-109
-125
-125
-132
-137
-129
-125
-130
-134
-123
-143
-156
-156
-167
-183
-189
-187
-200
-214
-228
-245
-240
-238
-259
-276
-271
-261
-269
-292
-303
-296
-306
-309
-314
-314
-313
-318
-331
-341
-347
-360
-358
-357
-362
-368
-363
-352
-339
-333
-309
-267
-229
-196
-179
-153
-101
-58
-29
7
49
85
121
147
160
182
211
227
244
277
287
292
286
285
282
274
275
276
265
250
228
208
202
194
170
145
142
148
125
105
87
78
65
48
46
52
45
43
52
54
42
29
40
40
31
30
38
40
27
23
16
18
13
3
-11
-13
-17
-28
-41
-45
-37
-38
-36
-44
-49
-46
-47
-61
-70
-70
-85
-97
-86
-79
-95
-121
-122
-115
-124
-143
-151
-148
-149
-153
-164
-171
-177
-176
-170
-156
-154
-172
-184
-179
-169
-177
-178
-173
-152
-140
-148
-145
-131
-124
-118
-117
-101
-79
-79
-69
-47
-35
-41
-45
-30
-10
0
-7
-7
10
20
27
28
38
31
31
34
47
52
42
33
42
52
49
48
50
64
58
42
33
49
57
50
41
51
70
69
58
55
59
66
65
62
74
95
107
99
101
109
120
117
115
121
112
98
98
101
96
84
79
91
87
78
68
64
62
65
75
65
50
43
46
53
60
53
42
42
50
52
51
53
56
56
40
46
39
27
21
30
31
19
7
14
25
24
16
26
54
68
67
59
64
79
81
79
75
88
100
94
88
91
94
87
81
84
90
93
89
85
86
78
72
71
83
80
65
62
77
70
54
36
39
39
32
18
9
12
17
11
5
16
12
-5
3
22
34
25
23
30
46
54
44
30
39
50
33
5
10
32
38
34
31
42
51
43
42
43
51
52
45
61
72
45
26
31
28
22
16
16
11
7
-2
-16
-24
-26
-31
-42
-53
-63
-83
-110
-125
-130
-127
-127
-128
-122
-115
-107
-109
-112
-105
-91
-84
-71
-65
-68
-69
-64
-56
-65
-89
-96
-85
-88
-110
-113
-104
-105
-103
-92
-80
-87
-89
-80
-61
-46
-51
-50
-39
-31
-42
-33
-6
3
-15
-15
5
-6
-20
-12
10
10
-8
-22
-18
-14
-19
-31
-33
-16
-19
-23
-12
-1
-8
-14
-8
-4
-2
-6
-3
-11
-26
-21
-4
-5
-6
3
11
3
-7
-6
1
5
4
3
13
15
5
-4
-1
7
15
22
20
19
25
41
51
51
51
62
62
60
66
80
93
92
96
98
102
113
118
119
119
113
116
122
124
120
121
128
133
132
119
106
108
108
103
96
92
87
88
88
85
78
90
102
100
109
112
108
107
102
89
81
88
104
106
91
82
88
93
90
81
80
91
90
71
64
69
66
60
52
52
50
53
57
49
54
56
58
59
62
70
77
74
71
66
71
72
51
49
55
59
57
55
51
46
51
50
38
35
42
44
49
45
39
49
56
45
37
39
49
41
33
36
41
35
31
38
36
32
36
40
43
48
44
41
48
54
45
36
37
38
36
21
18
25
26
22
5
2
6
6
-16
-21
-13
-27
-45
-49
-31
-38
-63
-63
-51
-39
-37
-41
-50
-57
-59
-64
-74
-87
-91
-93
-97
-101
-109
-123
-123
-126
-136
-134
-122
-123
-136
-136
-133
-128
-135
-145
-153
-149
-144
-143
-151
-160
-160
-164
-158
-144
-151
-167
-166
-153
-164
-183
-172
-154
-151
-173
-180
-166
-146
-137
-152
-164
-155
-140
-133
-130
-130
-127
-122
-111
-95
-88
-79
-74
-59
-36
-15
-16
-21
-3
21
19
9
15
32
36
18
23
49
56
48
46
49
59
64
58
54
61
64
74
88
94
91
90
86
94
104
105
102
112
129
136
138
141
151
155
147
145
163
180
172
158
143
157
178
179
184
171
170
171
162
154
172
186
180
171
183
200
193
187
204
220
224
221
225
243
254
259
264
269
272
269
267
261
264
264
250
234
217
211
194
174
159
143
119
86
54
44
24
-23
-60
-78
-97
-142
-175
-203
-234
-269
-300
-322
-336
-356
-380
-408
-429
-455
-470
-461
-459
-470
-477
-456
-448
-466
-474
-462
-426
-410
-406
-395
-383
-358
-331
-323
-306
-286
-265
-251
-243
-216
-195
-170
-153
-142
-117
-84
-71
-64
-44
-40
-42
-33
-17
11
46
87
130
201
275
335
397
475
554
629
718
813
900
981
1057
1122
1173
1204
1211
1222
1235
1215
1171
1134
1110
1074
1007
938
885
823
762
661
552
489
423
311
154
106
4
-88
-209
-294
-387
-485
-575
-654
-726
-820
-883
-916
-955
-994
-1009
-994
-967
-956
-933
-889
-855
-817
-765
-697
-638
-586
-527
-468
-419
-397
-380
-357
-341
-353
-377
-392
-377
-365
-377
-400
-416
-437
-484
-531
-560
-589
-626
-659
-666
-673
-682
-684
-672
-647
-610
-588
-566
-529
-472
-431
-404
-375
-333
-286
-257
-241
-236
-247
-227
-163
-72
37
154
263
355
430
461
459
458
454
445
437
438
441
457
471
483
472
449
458
457
442
432
423
418
410
402
394
397
415
411
424
470
491
492
504
523
555
597
601
578
624
672
677
676
707
732
722
719
706
677
652
621
563
502
461
414
334
228
135
44
-51
-161
-282
-386
-486
-597
-706
-798
-893
-959
-1020
-1077
-1133
-1171
-1186
-1201
-1211
-1208
-1188
-1140
-1093
-1038
-969
-895
-826
-733
-636
-542
-452
-332
-213
-121
-36
78
209
308
397
487
586
657
714
727
745
819
885
902
904
919
926
906
874
819
769
725
673
611
566
511
437
370
305
225
150
79
9
-48
-84
-138
-206
-274
-337
-377
-419
-463
-508
-541
-580
-603
-595
-583
-576
-581
-563
-504
-462
-452
-428
-392
-356
-330
-279
-220
-167
-122
-64
-19
11
45
91
126
145
169
195
209
203
195
181
166
150
125
84
50
2
-60
-132
-173
-159
-179
-245
-305
-325
-326
-363
-392
-397
-395
-396
-389
-382
-364
-341
-326
-289
-259
-233
-215
-186
-141
-102
-74
-58
-32
-19
5
38
56
54
67
105
118
90
90
118
121
122
131
145
160
163
161
159
164
172
171
176
183
173
157
153
155
140
123
113
106
94
85
77
63
52
43
36
24
32
28
9
-3
17
28
18
-1
5
29
35
29
20
38
50
53
60
72
91
105
111
117
134
143
150
158
181
189
186
201
221
232
226
228
227
239
257
249
234
228
229
233
238
240
239
248
251
246
243
243
239
234
238
253
258
257
263
260
267
281
271
250
262
274
259
241
236
236
241
234
217
212
225
212
188
176
165
139
102
97
98
80
38
21
18
13
-11
-43
-61
-60
-52
-69
-90
-92
-90
-105
-111
-120
-130
-134
-143
-162
-170
-179
-187
-197
-196
-201
-205
-206
-201
-206
-215
-219
-222
-220
-223
-215
-210
-219
-229
-223
-216
-231
-218
-192
-186
-194
-197
-179
-178
-181
-181
-187
-175
-168
-169
-178
-175
-170
-176
-173
-154
-145
-156
-161
-155
-141
-131
-126
-120
-110
-86
-83
-82
-83
-79
-75
-83
-77
-62
-63
-67
-72
-67
-60
-58
-65
-59
-49
-53
-66
-57
-34
-30
-39
-51
-43
-36
-51
-68
-61
-49
-52
-59
-63
-62
-61
-61
-69
-71
-64
-58
-77
-90
-71
-46
-41
-62
-62
-48
-43
-42
-48
-26
-18
-23
-14
6
21
8
-7
-9
-9
-6
-6
0
8
15
12
-4
-19
-19
-23
-16
-15
-16
-26
-30
-34
-46
-53
-50
-31
-34
-34
-30
-32
-37
-27
-14
-23
-33
-13
6
14
0
-14
-5
3
14
9
-6
-3
11
0
-9
10
26
19
13
29
43
50
45
40
48
60
46
46
74
73
63
58
67
54
39
44
48
46
29
9
3
12
12
-10
-21
-9
5
3
10
23
7
10
27
22
15
25
43
24
10
30
36
20
15
23
26
39
25
10
25
36
31
20
21
36
43
41
40
30
51
61
47
52
68
77
85
92
91
69
60
50
53
65
67
59
59
68
66
53
48
61
66
66
60
73
76
84
84
84
87
93
92
91
97
91
79
82
92
96
83
75
64
68
74
56
32
42
53
43
37
28
23
25
33
26
20
32
44
37
37
42
43
30
36
43
55
57
70
83
79
82
83
90
110
119
104
98
101
112
108
83
73
94
105
82
71
71
64
32
15
26
33
24
19
17
9
3
6
10
-2
-16
-11
1
-8
-27
-28
-23
-41
-67
-71
-78
-96
-103
-103
-88
-90
-104
-119
-114
-99
-110
-125
-112
-103
-121
-121
-111
-103
-97
-110
-119
-106
-104
-126
-140
-127
-123
-138
-134
-110
-93
-117
-135
-117
-95
-106
-124
-119
-92
-84
-101
-107
-80
-55
-64
-83
-82
-80
-77
-82
-100
-99
-83
-84
-97
-92
-88
-99
-104
-100
-106
-117
-124
-104
-88
-90
-88
-73
-78
-94
-99
-89
-72
-60
-51
-56
-40
-26
-28
-21
-20
-21
-14
6
7
-4
2
8
2
-1
12
17
22
31
38
36
29
32
32
35
45
38
35
35
30
21
16
17
6
-7
-7
-17
-41
-37
-24
-40
-58
-57
-53
-67
-82
-92
-94
-92
-89
-87
-79
-79
-90
-100
-100
-90
-88
-94
-102
-96
-89
-87
-81
-71
-73
-76
-80
-70
-53
-36
-29
-25
-15
-8
9
11
9
19
41
50
29
26
36
28
22
25
20
27
46
33
29
41
49
30
21
49
69
68
70
82
78
74
78
90
96
84
67
60
62
59
57
64
65
72
83
95
95
88
91
103
123
136
141
150
170
188
194
196
212
226
232
241
261
284
292
304
332
360
383
404
449
490
511
524
559
591
601
599
596
609
614
615
629
679
736
766
801
842
861
853
826
767
694
596
455
275
82
-87
-279
-490
-716
-933
-1115
-1282
-1448
-1588
-1678
-1748
-1796
-1821
-1820
-1798
-1752
-1701
-1645
-1561
-1477
-1401
-1312
-1220
-1124
-1026
-923
-822
-734
-655
-597
-524
-452
-401
-338
-273
-207
-144
-91
-35
40
128
207
291
392
501
602
710
832
956
1060
1144
1236
1326
1394
1432
1468
1498
1498
1487
1478
1457
1424
1388
1355
1315
1254
1191
1131
1070
1005
930
865
811
748
704
662
614
569
525
474
427
389
333
288
261
215
171
132
107
86
51
28
-1
-33
-80
-107
-125
-157
-187
-213
-228
-268
-306
-336
-357
-392
-423
-437
-446
-455
-469
-491
-508
-507
-505
-515
-513
-492
-473
-455
-440
-417
-393
-369
-347
-327
-292
-261
-247
-237
-219
-201
-194
-204
-201
-179
-165
-166
-169
-168
-155
-164
-172
-156
-147
-149
-159
-159
-158
-157
-168
-179
-178
-180
-173
-170
-181
-165
-140
-141
-145
-118
-86
-63
-47
-40
-42
-24
-7
9
27
36
36
45
87
127
154
176
212
258
294
332
359
364
382
404
405
403
395
371
349
335
309
258
200
159
111
55
6
-43
-78
-124
-169
-215
-269
-306
-328
-340
-361
-373
-373
-366
-362
-344
-333
-322
-300
-281
-252
-214
-197
-185
-158
-122
-93
-83
-78
-59
-52
-52
-53
-57
-68
-83
-91
-100
-120
-119
-149
-176
-166
-153
-149
-147
-146
-152
-160
-169
-170
-155
-140
-126
-105
-95
-69
-62
-63
-56
-21
-16
-21
-2
17
20
10
1
-5
4
23
20
11
3
11
0
-18
-24
-23
-25
-43
-48
-47
-51
-78
-75
-113
-158
-95
-48
-61
-95
-77
-66
-80
-106
-122
-121
-120
-115
-123
-150
-138
-72
-44
-50
-40
-13
-13
-50
-81
-87
-82
-78
-93
-97
-87
-79
-93
-107
-121
-126
-122
-122
-146
-153
-131
-131
-141
-144
-154
-158
-154
-159
-160
-152
-136
-133
-135
-126
-114
-112
-103
-83
-83
-89
-79
-59
-52
-58
-64
-49
-37
-41
-39
-26
-19
-28
-37
-25
-3
-8
-16
3
30
29
15
26
43
57
56
60
73
89
99
92
91
96
99
102
109
112
118
126
126
122
131
133
128
122
115
116
124
115
112
119
124
107
91
117
134
106
73
82
95
90
79
75
79
78
77
65
54
69
65
58
61
73
59
56
58
33
20
27
25
16
10
4
0
1
-10
-19
-14
-17
-26
-32
-29
-29
-47
-52
-37
-28
-33
-43
-27
-13
-26
-47
-35
-14
-16
-22
-14
9
15
1
8
31
44
24
20
49
71
43
21
39
74
73
55
49
68
77
62
43
49
69
29
-12
40
97
116
113
129
164
152
124
101
77
69
54
27
8
8
-2
-7
15
72
122
167
195
204
218
217
193
145
129
104
62
22
-21
-76
-99
-103
-96
-81
-71
-75
-73
-53
-75
-62
2
36
40
35
39
29
-23
-73
-84
-105
-130
-147
-156
-167
-173
-178
-176
-166
-155
-141
-119
-84
-65
-48
-21
12
40
56
76
103
119
137
153
163
154
164
159
156
158
149
139
135
134
132
133
130
124
109
109
116
114
112
107
115
100
86
87
99
93
72
74
71
63
51
41
44
15
-6
-80
-130
-38
-12
-45
-54
-22
11
-3
-54
-89
-97
-104
-117
-125
-119
-99
-79
-86
-97
-79
-71
-90
-91
-77
-75
-83
-79
-75
-82
-85
-81
-78
-78
-80
-87
-84
-77
-82
-86
-105
-111
-92
-79
-79
-83
-89
-88
-98
-104
-111
-109
-120
-134
-128
-125
-143
-150
-126
-118
-135
-141
-130
-96
-95
-102
-115
-117
-114
-119
-118
-115
-116
-111
-115
-111
-100
-95
-86
-85
-66
-56
-57
-49
-43
-38
-40
-26
-10
3
5
-3
-2
18
37
25
30
40
35
28
29
31
31
25
28
40
45
40
38
39
53
60
59
58
64
65
70
72
78
70
51
39
39
45
34
5
13
25
21
-3
-1
6
-17
-40
-24
-13
-22
-28
-38
-28
-9
-11
-18
-12
3
0
-3
7
23
19
14
26
44
51
52
57
62
61
73
93
115
111
110
124
130
135
136
129
129
140
138
129
130
137
118
109
108
102
91
88
98
87
80
82
76
68
70
81
78
78
80
75
56
50
49
46
48
49
38
26
21
17
5
2
-3
-14
-13
-3
-6
-21
-20
-17
-18
-32
-34
-33
-24
-25
-35
-31
-22
-12
-6
9
21
17
15
14
7
5
3
6
6
9
31
31
23
27
30
39
44
46
59
73
83
88
90
90
90
101
106
102
91
97
110
129
133
121
119
136
133
129
126
120
100
96
104
90
72
73
83
95
85
65
70
84
90
81
74
83
87
86
76
69
79
71
63
45
36
39
32
13
3
-8
-25
-43
-52
-61
-73
-99
-110
-123
-118
-131
-138
-121
-111
-121
-125
-121
-129
-143
-144
-132
-124
-128
-133
-129
-141
-144
-145
-147
-138
-133
-132
-135
-128
-114
-115
-120
-109
-102
-109
-112
-105
-95
-103
-111
-113
-110
-100
-101
-109
-101
-93
-91
-94
-83
-72
-78
-88
-83
-71
-65
-72
-81
-69
-64
-65
-76
-81
-77
-69
-75
-80
-84
-80
-74
-66
-71
-77
-77
-86
-95
-110
-118
-95
-75
-79
-86
-84
-84
-87
-80
-79
-76
-86
-83
-78
-83
-86
-82
-80
-88
-95
-86
-74
-82
-78
-62
-48
-47
-37
-24
-19
-15
-17
-2
4
7
1
-1
-3
5
20
22
9
2
-2
-1
-3
-20
-19
9
26
21
22
39
60
50
55
72
78
77
69
70
82
89
81
77
88
101
100
103
109
113
102
87
93
95
84
86
66
55
67
55
44
38
39
39
34
27
13
23
29
17
9
24
39
25
5
3
18
16
12
26
37
41
45
37
36
28
33
39
27
22
24
20
20
14
7
16
30
36
36
34
40
58
64
66
62
59
73
81
76
72
71
66
64
70
78
71
63
79
96
96
83
69
55
38
19
8
1
5
3
-9
-17
-24
-28
-38
-53
-62
-61
-57
-62
-70
-67
-66
-68
-70
-80
-73
-71
-76
-79
-66
-48
-48
-56
-46
-30
-26
-40
-38
-27
-32
-38
-35
-29
-23
-17
-3
4
15
24
11
12
28
42
31
34
44
40
32
39
51
50
46
56
57
43
33
31
31
31
30
28
21
31
30
7
-4
-3
12
18
11
19
33
27
18
30
47
47
48
48
48
46
43
53
56
48
55
66
62
51
47
65
71
54
56
59
61
52
47
54
60
58
57
69
72
55
43
49
58
46
34
35
51
44
21
29
58
75
56
30
42
62
64
51
46
55
66
60
44
52
67
68
55
49
66
70
42
22
31
41
30
28
50
58
27
9
24
33
12
-10
6
20
1
-19
-35
-29
-39
-70
-86
-80
-72
-92
-112
-97
-84
-97
-100
-94
-78
-78
-87
-94
-89
-89
-90
-99
-107
-106
-109
-126
-137
-146
-139
-136
-148
-153
-141
-141
-151
-147
-134
-135
-143
-148
-149
-156
-152
-140
-146
-150
-147
-144
-135
-122
-108
-108
-103
-95
-91
-94
-91
-86
-81
-75
-74
-80
-75
-67
-63
-64
-50
-44
-36
-25
-37
-40
-28
-23
-30
-28
-7
15
6
4
11
28
46
40
52
70
89
96
89
103
113
103
88
79
79
73
55
48
53
55
34
16
16
17
6
-13
-11
5
-6
-41
-55
-56
-67
-89
-105
-94
-103
-144
-167
-161
-160
-179
-187
-173
-157
-169
-184
-187
-191
-198
-202
-192
-181
-186
-196
-187
-175
-164
-158
-151
-147
-141
-141
-140
-134
-136
-133
-128
-125
-121
-123
-134
-129
-108
-102
-111
-111
-88
-68
-60
-53
-41
-35
-32
-22
-2
2
-3
-5
11
29
27
23
35
59
67
55
60
93
104
92
92
106
106
95
91
96
101
103
106
103
117
127
123
122
132
144
141
130
124
128
136
144
151
167
173
168
163
161
168
172
182
188
201
202
209
220
221
221
225
233
247
255
259
254
247
257
268
262
259
263
263
256
243
234
223
206
196
182
162
138
120
102
77
48
30
11
-20
-52
-77
-94
-114
-128
-136
-157
-191
-209
-217
-234
-256
-265
-272
-290
-308
-316
-319
-325
-329
-330
-338
-343
-362
-368
-368
-382
-375
-353
-335
-354
-359
-333
-302
-288
-286
-266
-223
-190
-179
-157
-127
-94
-73
-46
-6
37
62
68
83
104
126
140
159
189
236
286
332
382
443
508
578
633
704
792
873
941
1013
1078
1134
1174
1200
1212
1213
1213
1205
1185
1153
1113
1065
1020
983
929
858
804
745
666
581
503
424
336
247
165
77
-21
-118
-205
-288
-373
-438
-497
-551
-607
-670
-721
-751
-761
-767
-768
-754
-732
-715
-683
-650
-608
-557
-519
-493
-466
-443
-429
-432
-441
-441
-452
-469
-498
-529
-561
-597
-644
-713
-759
-790
-839
-898
-925
-919
-924
-946
-957
-948
-926
-905
-873
-819
-751
-667
-566
-471
-382
-278
-160
-41
46
123
196
249
279
296
307
313
317
322
326
321
312
301
294
288
288
293
305
325
356
381
404
437
473
511
536
559
580
592
600
610
617
615
613
610
608
600
581
561
537
525
513
486
454
431
419
389
337
287
252
217
162
100
61
20
-34
-89
-136
-190
-247
-306
-355
-395
-430
-463
-489
-510
-542
-574
-583
-580
-595
-618
-613
-595
-599
-614
-604
-594
-578
-554
-525
-493
-463
-449
-439
-422
-396
-375
-350
-310
-281
-275
-268
-243
-217
-194
-185
-169
-138
-105
-78
-62
-40
-14
11
34
61
80
102
129
158
181
201
230
268
302
329
366
399
435
468
502
529
548
567
591
603
614
633
655
673
689
701
698
694
698
710
710
693
669
651
638
616
585
552
529
501
465
426
397
372
334
289
252
222
193
139
88
50
4
-55
-103
-132
-169
-224
-278
-317
-345
-381
-422
-456
-482
-504
-528
-555
-571
-582
-597
-604
-603
-602
-596
-588
-573
-562
-553
-532
-506
-482
-453
-420
-380
-355
-326
-297
-268
-232
-193
-163
-145
-120
-86
-57
-40
-24
-3
20
24
41
62
63
64
72
79
83
76
64
67
68
55
26
24
33
32
12
5
4
-9
-20
-24
-29
-33
-46
-54
-59
-67
-86
-111
-116
-114
-125
-139
-133
-120
-129
-144
-148
-144
-135
-138
-133
-122
-119
-120
-111
-101
-85
-70
-63
-55
-48
-44
-44
-42
-39
-29
-23
-26
-11
18
34
30
31
45
59
64
56
59
72
80
82
97
117
122
115
114
121
130
123
113
111
111
100
86
74
82
89
94
95
92
94
92
77
71
77
83
86
80
84
96
79
57
59
71
68
53
46
46
58
46
45
46
51
45
44
38
40
43
53
65
60
56
67
79
68
56
56
56
51
42
33
33
36
27
14
12
10
-7
-28
-42
-55
-64
-68
-68
-65
-63
-66
-72
-84
-83
-86
-95
-94
-97
-110
-123
-123
-125
-125
-118
-109
-106
-113
-115
-127
-137
-140
-139
-125
-121
-115
-107
-104
-104
-97
-79
-59
-51
-52
-42
-22
-18
-26
-22
-24
-37
-41
-45
-48
-59
-64
-52
-45
-49
-58
-42
-25
-32
-32
-20
-11
-14
-15
-7
2
5
3
11
18
14
13
16
11
4
2
20
35
23
9
8
11
10
9
10
9
9
14
21
20
21
27
38
55
73
76
76
85
90
94
104
114
118
117
112
102
93
96
99
101
95
92
97
103
106
98
96
101
101
99
97
100
103
98
100
110
114
111
112
119
122
109
103
116
118
102
97
106
110
101
104
119
119
114
109
116
115
94
82
90
93
83
70
63
66
52
37
32
25
11
6
8
11
3
-9
-6
5
3
-13
-23
-27
-34
-41
-42
-41
-35
-30
-26
-35
-50
-48
-36
-39
-46
-45
-37
-36
-39
-43
-34
-27
-34
-47
-48
-39
-37
-41
-40
-35
-39
-42
-38
-32
-40
-47
-37
-36
-45
-47
-37
-28
-33
-30
-14
-1
-15
-24
-9
0
-11
-17
2
21
29
20
24
40
40
29
20
13
3
-9
-11
-14
-33
-53
-60
-55
-53
-67
-70
-74
-74
-74
-76
-79
-78
-69
-75
-84
-83
-81
-79
-71
-68
-65
-70
-78
-76
-79
-82
-84
-83
-83
-80
-77
-79
-79
-72
-61
-50
-39
-33
-29
-9
12
18
19
29
39
33
34
45
48
41
44
49
38
33
52
61
52
47
64
79
87
90
88
77
67
60
50
43
41
33
23
14
17
32
32
18
11
14
10
-1
-1
-3
-5
15
24
13
14
29
35
25
21
27
34
20
-2
-8
-4
-12
-33
-54
-62
-58
-77
-102
-108
-104
-111
-136
-152
-144
-144
-162
-178
-178
-186
-200
-196
-191
-193
-196
-195
-192
-195
-205
-208
-196
-181
-179
-177
-161
-130
-112
-108
-103
-86
-57
-58
-62
-43
-26
-29
-40
-33
-15
-9
-17
-14
1
1
-13
-26
-31
-25
-27
-36
-39
-28
-12
-17
-26
-16
-4
-1
7
25
39
40
35
30
37
47
55
56
57
51
52
52
37
39
62
64
46
47
58
66
60
55
55
54
53
47
50
49
41
38
37
40
37
29
25
19
6
6
19
31
19
9
11
21
25
23
20
21
27
31
34
27
25
41
52
56
52
40
37
36
24
11
12
15
21
21
23
18
18
15
8
-1
1
17
20
12
4
14
23
17
10
18
24
28
31
39
48
47
43
52
65
67
58
60
69
63
53
58
73
75
59
55
76
83
64
49
58
64
56
51
58
69
67
56
43
40
35
17
4
3
5
-4
-20
-20
-12
-26
-45
-51
-48
-56
-70
-76
-75
-82
-85
-80
-71
-69
-76
-72
-60
-47
-41
-31
-3
37
64
92
145
212
264
313
365
418
454
476
510
557
601
640
658
664
661
636
581
515
446
363
255
125
-9
-155
-327
-511
-703
-901
-1103
-1286
-1439
-1561
-1659
-1730
-1778
-1785
-1764
-1728
-1688
-1628
-1540
-1455
-1381
-1293
-1179
-1066
-974
-879
-766
-666
-584
-502
-414
-352
-314
-288
-246
-210
-187
-152
-118
-91
-66
-38
-11
28
84
144
209
286
374
474
576
677
784
894
995
1075
1140
1205
1265
1307
1324
1329
1332
1325
1308
1276
1244
1205
1159
1107
1047
985
933
880
832
777
717
668
622
565
502
459
421
370
316
283
256
227
193
157
132
112
86
48
11
-14
-37
-64
-86
-97
-119
-148
-162
-167
-195
-229
-247
-259
-285
-315
-324
-322
-333
-349
-347
-341
-343
-347
-347
-340
-327
-312
-306
-287
-263
-253
-246
-240
-231
-212
-206
-198
-187
-169
-157
-153
-137
-120
-118
-110
-88
-64
-57
-59
-40
-22
-22
-34
-51
-60
-75
-91
-97
-89
-76
-68
-62
-40
-8
16
27
36
42
53
60
62
61
57
55
60
63
67
68
68
82
97
100
96
103
108
114
132
155
178
199
221
237
240
245
262
276
293
311
350
391
424
449
467
485
480
455
433
405
362
305
249
198
141
71
13
-37
-93
-157
-213
-252
-294
-339
-369
-386
-408
-429
-430
-407
-390
-381
-366
-331
-283
-251
-231
-197
-148
-100
-71
-44
-12
19
35
43
53
61
66
67
63
55
45
34
24
16
-4
-20
-29
-45
-69
-78
-75
-72
-71
-67
-62
-69
-76
-79
-74
-74
-71
-53
-46
-53
-58
-51
-44
-44
-63
-72
-74
-74
-84
-108
-114
-109
-108
-119
-125
-118
-127
-145
-154
-146
-140
-154
-169
-166
-152
-150
-167
-178
-155
-138
-148
-153
-136
-112
-109
-109
-92
-71
-59
-55
-43
-34
-25
-18
-4
15
28
36
42
47
54
65
75
80
80
85
85
72
65
64
66
72
64
53
48
46
36
29
24
21
21
12
3
11
13
12
21
24
17
4
8
9
6
6
13
15
14
11
21
26
21
18
14
13
12
14
11
17
19
17
35
51
54
66
81
90
89
98
115
128
123
111
110
119
122
115
104
104
97
92
91
90
82
66
72
90
96
85
73
67
64
63
66
80
95
104
104
100
93
93
109
105
91
88
87
76
65
50
37
33
22
8
-1
-9
-13
-21
-28
-23
-22
-22
-24
-25
-31
-38
-37
-37
-42
-43
-45
-53
-45
-36
-43
-48
-39
-26
-32
-41
-38
-35
-33
-14
6
16
8
11
34
44
45
34
38
52
59
57
58
73
82
90
92
91
91
91
86
74
64
66
73
76
69
60
51
46
47
45
44
53
59
54
33
26
32
46
41
14
4
21
32
29
23
30
43
44
48
65
79
86
82
88
107
110
103
100
97
91
83
83
97
101
92
90
104
114
111
112
129
156
156
145
148
155
164
164
160
163
169
169
158
150
157
159
152
145
136
135
130
123
114
115
119
114
98
96
105
99
86
85
96
97
90
97
102
98
90
87
81
75
58
42
29
17
9
0
-13
-26
-38
-40
-39
-51
-59
-57
-61
-68
-74
-75
-71
-72
-69
-63
-62
-53
-50
-49
-50
-55
-51
-45
-39
-37
-32
-36
-43
-41
-37
-40
-36
-34
-36
-31
-33
-41
-40
-28
-24
-25
-22
-16
-24
-24
-21
-19
-12
-3
8
12
16
22
16
4
3
6
10
13
12
8
4
9
11
12
15
4
-7
-12
-16
-12
-15
-17
-17
-15
-10
-8
-7
-10
-23
-41
-42
-43
-47
-59
-73
-68
-53
-48
-53
-60
-56
-52
-54
-48
-36
-33
-35
-29
-19
-17
-24
-25
-19
-25
-34
-42
-45
-51
-49
-46
-43
-36
-33
-27
-26
-32
-35
-30
-39
-44
-31
-15
-3
-1
0
9
7
-3
-6
4
12
11
10
13
16
20
27
39
37
37
43
42
31
17
15
20
21
11
8
10
6
-12
-33
-34
-45
-63
-73
-71
-84
-106
-109
-104
-103
-120
-136
-132
-128
-141
-149
-149
-154
-153
-153
-160
-166
-167
-169
-173
-180
-188
-200
-200
-206
-210
-214
-225
-229
-235
-238
-239
-236
-239
-248
-244
-232
-230
-237
-243
-236
-231
-238
-231
-216
-210
-210
-202
-193
-196
-197
-185
-168
-171
-179
-168
-157
-159
-155
-150
-137
-122
-121
-111
-81
-57
-51
-48
-37
-21
1
11
2
10
30
40
37
26
31
49
52
43
46
58
66
73
86
109
121
127
134
146
155
158
157
147
149
147
141
142
155
157
152
154
153
146
138
128
129
135
139
141
145
153
147
132
135
148
145
142
149
151
150
152
154
162
160
165
167
166
171
179
187
187
190
201
214
210
201
205
213
219
220
222
225
232
228
222
224
236
238
228
213
220
231
224
205
188
195
211
211
183
160
159
157
136
126
126
129
126
115
105
104
100
98
95
106
114
108
103
111
115
123
143
152
145
138
132
127
128
119
102
96
109
107
92
76
74
77
79
65
58
63
67
56
51
52
60
61
62
69
66
59
55
52
61
52
60
35
46
54
69
1
12
17
20
26
19
4
-11
-12
-8
-3
-10
-26
1
18
-3
-9
-3
1
-18
-40
-38
-38
-46
-55
-50
-32
-24
-31
-43
-54
-67
-81
-86
-86
-99
-111
-100
-90
-97
-102
-91
-71
-69
-82
-79
-73
-68
-63
-64
-55
-53
-56
-54
-56
-57
-55
-58
-57
-57
-59
-58
-52
-58
-68
-66
-55
-61
-71
-66
-61
-63
-70
-67
-59
-53
-51
-52
-57
-67
-69
-74
-81
-86
-89
-96
-105
-110
-113
-120
-129
-178
-184
-124
-92
-126
-161
-149
-129
-120
-119
-122
-135
-144
-140
-147
-157
-172
-164
-151
-149
-164
-183
-182
-165
-165
-181
-190
-176
-162
-169
-173
-170
-150
-138
-153
-169
-165
-147
-136
-144
-146
-133
-123
-123
-141
-150
-160
-181
-182
-172
-186
-201
-203
-204
-204
-219
-233
-236
-241
-255
-275
-276
-273
-292
-307
-295
-272
-269
-283
-288
-280
-265
-264
-274
-277
-271
-259
-263
-269
-263
-250
-245
-243
-244
-237
-220
-203
-200
-193
-173
-140
-127
-129
-125
-111
-105
-108
-97
-73
-52
-43
-41
-40
-23
-9
-9
-2
5
5
3
-2
7
27
33
44
52
58
61
62
66
67
69
74
80
88
82
86
99
89
76
74
82
88
83
69
65
65
65
70
87
101
95
88
81
91
99
96
92
100
109
104
95
94
98
92
88
99
111
106
98
99
98
92
91
100
105
111
110
102
110
119
116
107
114
121
115
113
119
113
108
98
90
95
97
92
81
78
75
79
82
80
81
91
82
68
64
58
52
53
54
42
24
11
14
8
-3
-16
-23
-25
-35
-53
-76
-76
-60
-62
-74
-75
-61
-57
-64
-72
-67
-51
-40
-50
-43
-25
-28
-30
-12
-9
-9
-11
-14
-19
-19
-22
-13
2
13
15
20
21
23
19
14
16
26
26
23
28
30
41
54
43
38
46
49
53
57
65
75
80
78
66
64
78
72
62
59
53
36
23
17
16
6
-3
-14
-25
-28
-35
-49
-61
-69
-75
-77
-77
-90
-105
-114
-120
-129
-135
-125
-130
-138
-135
-135
-136
-128
-113
-106
-105
-97
-96
-111
-117
-116
-118
-118
-113
-97
-103
-108
-114
-117
-119
-115
-106
-119
-130
-130
-126
-117
-123
-125
-113
-102
-109
-110
-93
-85
-84
-74
-48
-39
-42
-36
-26
-21
-28
-28
-16
-3
1
-6
-5
-8
-6
1
7
11
14
9
7
2
-2
-4
-4
-9
-9
-6
-8
-24
-28
-28
-22
-25
-40
-35
-26
-44
-66
-66
-56
-49
-47
-48
-47
-48
-51
-58
-44
-27
-24
-19
-8
-6
-14
-13
-2
26
38
47
60
70
93
108
117
142
165
190
209
221
234
255
282
303
328
359
379
393
410
430
447
463
467
470
474
469
454
451
450
445
440
430
415
393
367
339
313
289
259
232
207
182
137
92
53
31
0
-51
-89
-112
-135
-166
-193
-201
-221
-244
-279
-306
-317
-338
-359
-363
-360
-360
-358
-349
-325
-333
-339
-325
-302
-279
-272
-247
-219
-199
-181
-156
-123
-82
-58
-33
-9
16
48
70
99
126
150
167
184
208
230
232
235
253
273
293
319
366
425
489
565
642
733
835
935
1033
1118
1204
1276
1341
1396
1425
1436
1438
1421
1401
1376
1341
1284
1218
1164
1097
1011
924
838
732
608
493
377
243
101
-37
-158
-272
-396
-515
-626
-737
-838
-935
-1018
-1102
-1171
-1229
-1254
-1268
-1305
-1315
-1296
-1270
-1229
-1185
-1149
-1082
-994
-895
-831
-770
-712
-614
-523
-521
-492
-435
-409
-387
-370
-382
-395
-413
-442
-445
-458
-515
-547
-534
-571
-624
-643
-627
-633
-637
-618
-588
-548
-533
-503
-441
-398
-376
-333
-265
-210
-149
-88
-35
30
78
133
225
306
336
368
451
511
553
563
570
607
637
649
648
683
651
600
612
591
534
504
485
459
425
404
374
336
311
292
244
206
209
228
205
196
229
266
287
315
355
399
425
464
483
503
494
498
494
458
401
396
361
299
232
184
131
43
-17
-45
-88
-168
-227
-283
-350
-408
-456
-527
-582
-618
-684
-743
-787
-821
-868
-896
-919
-959
-990
-983
-987
-1028
-1016
-992
-967
-928
-862
-819
-772
-715
-671
-583
-474
-393
-309
-212
-96
11
120
241
356
453
566
678
772
835
933
1011
1072
1131
1201
1240
1250
1267
1290
1320
1316
1296
1293
1292
1282
1223
1195
1161
1101
1041
976
910
854
763
660
583
509
436
343
254
152
76
13
-74
-156
-219
-268
-313
-353
-390
-427
-444
-464
-480
-482
-487
-465
-476
-480
-446
-417
-409
-379
-327
-307
-284
-257
-243
-204
-157
-152
-145
-107
-68
-76
-82
-57
-25
-27
-39
-11
14
15
18
24
44
53
49
43
39
35
22
28
15
-20
-21
-13
-16
-54
-64
-58
-64
-95
-111
-94
-111
-140
-144
-138
-147
-130
-114
-133
-155
-164
-136
-145
-182
-164
-156
-167
-144
-135
-162
-162
-112
-109
-128
-108
-80
-80
-90
-66
-28
-9
1
0
10
24
32
15
18
48
47
22
33
44
44
19
30
42
34
22
19
7
-6
-6
-6
5
11
-1
-16
-8
1
-11
-8
17
3
-13
6
19
29
43
26
26
58
75
46
27
45
42
56
56
48
70
89
80
60
82
91
70
72
87
83
73
58
58
71
71
87
102
89
83
87
99
98
103
116
110
109
123
120
99
86
102
103
83
72
94
106
85
70
72
66
80
81
51
47
64
56
31
34
45
39
28
4
-3
3
-1
-16
-25
-35
-45
-53
-67
-73
-90
-90
-91
-113
-138
-126
-127
-155
-175
-169
-139
-142
-153
-168
-158
-151
-176
-187
-179
-170
-192
-198
-178
-189
-201
-191
-177
-199
-218
-195
-196
-203
-202
-184
-176
-161
-136
-119
-107
-100
-92
-92
-73
-48
-36
-31
-26
-4
13
25
36
43
26
43
67
62
59
80
92
81
72
84
109
102
87
83
98
110
83
69
77
97
89
80
90
110
114
93
92
94
105
113
111
99
106
121
116
103
106
107
107
98
77
68
79
58
36
34
41
33
8
0
-6
-27
-34
-31
-33
-48
-45
-45
-59
-49
-38
-57
-69
-63
-56
-60
-53
-58
-52
-41
-55
-58
-57
-50
-54
-54
-54
-46
-43
-54
-63
-56
-38
-28
-30
-28
-14
-2
11
9
8
15
29
30
23
49
59
24
16
43
27
2
5
26
42
36
26
39
44
13
-4
14
13
-2
-15
-3
4
-16
-26
-13
-16
-39
-45
-39
-55
-63
-60
-69
-67
-54
-60
-76
-59
-54
-71
-89
-83
-67
-81
-114
-111
-105
-122
-138
-135
-122
-121
-140
-153
-157
-162
-169
-182
-172
-160
-167
-169
-164
-148
-146
-167
-165
-144
-121
-123
-137
-138
-131
-117
-122
-135
-115
-119
-136
-141
-135
-127
-128
-129
-115
-103
-118
-128
-117
-110
-108
-101
-86
-72
-55
-58
-62
-57
-55
-42
-37
-39
-39
-25
-33
-53
-48
-32
-22
-25
-27
-29
-32
-48
-48
-30
-30
-39
-31
-22
-16
-21
-19
0
16
23
26
30
48
65
65
71
98
125
129
125
122
130
118
126
151
148
129
127
141
139
120
99
99
107
95
77
100
113
89
81
87
96
123
128
93
85
90
79
73
71
50
50
51
27
6
6
-6
-4
-20
-39
-40
-53
-84
-103
-104
-91
-94
-100
-98
-101
-115
-116
-94
-86
-75
-63
-45
-34
-33
-38
-26
-11
-9
-20
-21
-19
-3
-6
-3
17
35
33
32
34
36
48
42
37
50
70
50
27
52
53
37
53
64
61
60
44
48
59
38
29
61
100
97
60
62
92
85
85
92
85
75
87
101
96
92
102
103
111
129
109
103
125
117
96
83
105
103
91
91
99
85
87
103
114
109
106
113
102
101
108
98
96
91
85
71
62
55
52
52
53
54
51
41
44
44
34
39
72
69
47
40
53
79
72
72
76
94
90
85
107
129
134
125
123
150
160
157
140
140
140
138
137
123
112
120
104
52
44
78
79
36
10
15
23
14
-3
-18
-14
-28
-50
-31
-8
-36
-75
-64
-50
-55
-67
-61
-55
-48
-59
-61
-46
-46
-55
-77
-92
-82
-86
-97
-115
-99
-89
-109
-115
-109
-102
-107
-105
-98
-87
-100
-112
-80
-60
-74
-82
-66
-58
-67
-70
-66
-58
-49
-48
-42
-40
-24
-17
-23
-26
-21
-10
-19
-39
-55
-53
-28
-31
-61
-60
-47
-49
-47
-61
-61
-62
-76
-80
-69
-64
-72
-57
-22
-14
-26
-16
17
55
65
82
110
134
150
165
189
205
216
234
269
306
334
382
456
500
538
592
609
624
657
695
700
708
715
696
676
628
560
502
452
378
280
180
77
-40
-204
-387
-571
-749
-943
-1103
-1224
-1337
-1440
-1538
-1588
-1594
-1589
-1575
-1530
-1458
-1389
-1300
-1213
-1145
-1078
-960
-856
-792
-712
-627
-568
-523
-476
-436
-387
-370
-356
-341
-320
-317
-320
-297
-266
-244
-221
-159
-95
-37
28
117
211
305
381
449
547
638
707
763
821
849
875
888
887
876
854
836
811
777
756
719
669
645
617
574
543
519
489
462
440
410
377
355
328
312
297
277
261
231
205
185
154
106
112
115
92
53
38
40
21
9
-15
-30
-40
-60
-84
-78
-74
-84
-80
-76
-99
-117
-121
-125
-141
-150
-161
-174
-182
-203
-215
-238
-240
-217
-212
-219
-229
-227
-205
-191
-192
-189
-168
-151
-133
-112
-109
-88
-65
-37
-17
-2
23
44
63
92
113
116
125
133
133
127
118
100
90
93
87
69
44
21
-1
-32
-68
-88
-108
-143
-170
-186
-191
-206
-225
-211
-172
-176
-190
-157
-108
-88
-85
-53
-7
34
65
82
101
136
154
172
193
208
209
208
211
202
205
197
185
174
148
143
128
104
84
95
96
83
69
71
79
63
55
74
82
59
54
72
78
76
71
95
113
130
141
149
164
170
181
188
179
182
195
201
200
208
207
203
198
205
204
196
191
182
178
171
159
153
146
145
136
115
111
107
89
69
79
88
60
33
40
52
42
16
-4
0
0
-16
-32
-45
-50
-65
-65
-67
-87
-103
-109
-111
-117
-124
-131
-123
-132
-179
-180
-160
-171
-194
-200
-204
-209
-209
-205
-206
-201
-205
-195
-183
-182
-178
-178
-172
-162
-168
-176
-172
-165
-157
-142
-133
-136
-141
-135
-111
-102
-108
-107
-102
-94
-97
-105
-107
-99
-95
-104
-114
-118
-97
-85
-105
-115
-95
-85
-93
-111
-122
-126
-126
-136
-128
-130
-130
-141
-134
-135
-135
-135
-135
-129
-142
-151
-145
-135
-148
-153
-130
-121
-133
-129
-123
-134
-142
-133
-129
-136
-143
-143
-122
-111
-120
-121
-99
-74
-85
-92
-73
-45
-56
-55
-8
29
24
34
51
67
74
82
98
104
120
139
141
138
146
167
173
174
162
158
179
178
160
161
168
183
183
173
173
161
153
149
131
120
112
111
104
99
88
77
76
67
59
50
52
42
30
32
45
43
40
46
54
51
50
49
41
30
43
61
61
58
75
73
54
49
62
52
30
30
43
36
14
3
11
20
23
6
-7
-9
-6
-24
-41
-27
-34
-54
-58
-48
-50
-54
-58
-65
-71
-68
-59
-66
-80
-79
-78
-77
-77
-76
-73
-64
-78
-84
-63
-45
-51
-56
-58
-66
-66
-49
-33
-34
-57
-59
-38
-38
-60
-68
-63
-52
-49
-58
-69
-74
-72
-88
-105
-111
-133
-150
-160
-171
-187
-184
-171
-159
-172
-180
-157
-138
-131
-127
-104
-74
-48
-18
13
19
32
73
102
106
113
122
149
169
158
156
185
196
182
178
180
164
134
107
101
80
50
33
33
22
3
-25
-32
-36
-54
-66
-63
-79
-96
-98
-86
-92
-94
-81
-71
-79
-81
-68
-69
-70
-72
-53
-43
-45
-41
-28
-9
-4
-8
2
11
3
0
9
14
15
16
24
30
27
7
14
20
8
-10
3
13
12
5
-3
-13
-25
-19
-19
-23
-30
-27
-19
-21
-35
-48
-34
-39
-48
-47
-54
-64
-54
-64
-73
-65
-44
-40
-54
-57
-56
-60
-73
-74
-65
-64
-61
-57
-55
-48
-50
-48
-56
-51
-38
-33
-31
-31
-29
-26
-16
-3
-7
-9
6
23
17
15
34
33
35
35
37
40
18
11
24
40
31
33
49
59
60
51
62
80
104
106
95
83
95
102
97
94
97
99
101
91
78
74
84
87
75
70
79
72
36
27
42
57
53
52
60
68
54
28
45
58
34
18
19
20
15
3
-5
6
13
-2
-11
-5
4
8
0
-10
2
12
6
11
14
7
-3
-13
-13
-15
-19
-27
-33
-43
-51
-53
-65
-70
-71
-73
-80
-100
-103
-92
-87
-89
-92
-98
-94
-93
-107
-108
-105
-109
-107
-100
-105
-113
-102
-93
-97
-101
-96
-101
-101
-85
-80
-77
-76
-56
-45
-45
-48
-40
-24
-20
-26
-13
5
11
5
5
20
26
25
29
26
10
4
10
2
6
22
29
25
33
38
37
48
55
59
65
69
74
62
67
66
60
70
99
101
83
93
107
103
97
107
113
114
123
138
141
130
122
136
148
128
122
135
134
114
93
97
103
107
99
90
89
92
88
91
101
101
89
88
107
116
99
77
71
85
77
48
37
38
31
21
14
22
25
12
12
28
33
29
30
45
56
57
62
65
63
55
64
66
62
63
65
52
51
56
61
76
80
80
70
69
75
87
85
83
94
115
128
126
131
143
152
148
143
145
147
134
132
134
136
127
127
140
130
101
89
94
92
76
71
78
78
70
84
81
55
47
71
77
57
49
59
66
57
52
49
51
37
31
33
35
37
25
26
31
36
27
12
4
4
4
-12
-19
-19
-23
-27
-27
-33
-38
-36
-33
-36
-33
-33
-29
-30
-30
-37
-40
-29
-10
-17
-38
-60
-48
-45
-60
-67
-62
-64
-79
-75
-67
-69
-74
-71
-62
-65
-70
-69
-63
-66
-76
-71
-71
-70
-66
-73
-91
-99
-96
-101
-119
-127
-121
-119
-125
-129
-133
-127
-122
-128
-122
-116
-123
-118
-106
-109
-99
-88
-81
-75
-67
-60
-61
-68
-76
-66
-54
-59
-80
-78
-63
-66
-89
-97
-75
-60
-95
-150
-122
-68
-59
-56
-27
2
3
-17
-39
-51
-56
-77
-89
-75
-58
-58
-78
-78
-49
-40
-56
-52
-43
-34
-39
-42
-13
2
1
2
26
40
26
13
25
46
49
39
45
43
33
34
28
20
15
8
-3
-16
-27
-16
-14
-18
-11
2
9
-8
-13
-5
-5
-27
-26
-1
1
-21
-25
4
16
5
-15
-4
-4
-15
-27
-31
-35
-38
-22
-10
-8
-10
-19
-25
-23
-13
-15
-122
-81
60
69
40
54
108
120
89
65
57
52
38
33
43
59
67
75
81
83
74
67
60
32
28
40
38
20
8
18
27
12
1
2
0
-1
-27
-37
-27
-33
-56
-68
-62
-62
-72
-79
-81
-86
-92
-94
-83
-78
-75
-69
-76
-63
-51
-49
-55
-51
-36
-24
-41
-52
-45
-27
-26
-36
-35
-21
-24
-34
-27
-16
-24
-24
-10
-7
-5
3
17
32
46
46
53
66
65
69
87
107
119
129
147
167
165
159
167
179
193
174
167
176
182
183
182
171
173
162
138
135
141
140
114
98
83
88
101
80
65
49
38
47
42
16
3
5
19
28
14
0
13
28
29
30
28
28
23
39
46
34
21
22
28
23
19
-1
-20
-10
-10
-13
-2
-26
-32
-18
-13
-28
-50
-48
-56
-63
-96
-93
-65
-84
-93
-82
-75
-78
-89
-110
-113
-106
-113
-119
-109
-112
-116
-110
-87
-92
-96
-119
-144
-147
-151
-148
-169
-188
-161
-121
-114
-139
-140
-106
-102
-131
-130
-129
-142
-158
-153
-150
-181
-212
-211
-212
-218
-204
-201
-199
-184
-148
-117
-84
-83
-81
-73
-58
-47
-55
-58
-49
-45
-64
-75
-74
-86
-105
-86
-80
-107
-131
-131
-114
-125
-138
-150
-150
-162
-159
-136
-151
-184
-185
-160
-159
-169
-165
-177
-177
-182
-182
-182
-180
-174
-188
-196
-189
-178
-185
-199
-184
-161
-169
-173
-169
-152
-145
-146
-161
-146
-125
-110
-121
-126
-102
-84
-79
-98
-87
-62
-50
-52
-49
-42
-19
8
28
21
41
61
57
75
111
125
123
154
180
182
191
193
200
216
220
226
220
207
193
185
189
194
177
161
169
154
128
103
96
82
49
30
7
-36
-67
-90
-117
-159
-195
-238
-276
-310
-337
-365
-416
-448
-449
-464
-510
-528
-535
-545
-558
-566
-577
-593
-586
-571
-561
-557
-540
-514
-500
-475
-464
-437
-405
-354
-326
-297
-245
-183
-132
-115
-78
-30
35
89
109
135
184
239
262
275
306
334
357
380
405
447
490
535
566
616
690
772
849
928
1005
1074
1168
1250
1316
1375
1438
1508
1528
1521
1524
1513
1472
1414
1354
1292
1222
1136
1049
960
870
780
670
563
449
347
240
125
3
-104
-207
-317
-434
-537
-616
-697
-782
-856
-910
-949
-994
-1024
-1037
-1051
-1053
-1025
-971
-930
-892
-851
-790
-715
-665
-608
-544
-489
-448
-409
-370
-342
-320
-307
-292
-282
-308
-323
-318
-338
-364
-379
-400
-408
-413
-424
-443
-463
-460
-444
-433
-431
-400
-363
-328
-290
-235
-182
-129
-61
3
43
95
168
224
258
309
370
413
448
488
542
590
609
606
612
617
621
624
622
617
588
584
612
637
635
619
586
532
455
392
324
285
239
187
125
71
47
30
2
-28
-53
-46
-41
-36
-35
-13
12
30
39
47
69
87
88
102
126
130
110
97
107
84
46
6
-15
-36
-64
-96
-138
-186
-219
-255
-301
-371
-444
-499
-548
-630
-695
-725
-770
-830
-863
-886
-919
-959
-975
-965
-979
-1002
-1002
-977
-948
-927
-895
-844
-778
-727
-666
-585
-500
-414
-343
-252
-143
-47
38
131
250
357
430
502
587
685
774
836
898
980
1054
1098
1138
1188
1233
1266
1247
1238
1251
1236
1177
1136
1101
1043
953
865
784
682
573
465
351
250
154
58
-53
-154
-232
-323
-408
-471
-535
-596
-645
-667
-688
-698
-716
-717
-691
-684
-687
-668
-628
-601
-582
-547
-505
-483
-459
-405
-359
-327
-290
-257
-214
-176
-132
-103
-63
-27
-5
20
52
95
124
129
138
166
183
197
202
200
206
213
202
186
182
181
176
162
131
106
102
89
61
36
22
17
12
3
-14
-32
-36
-43
-42
-38
-48
-66
-66
-65
-68
-67
-64
-71
-67
-49
-50
-59
-40
-29
-16
3
4
19
39
51
44
39
54
84
86
68
81
98
96
85
90
114
117
87
76
87
92
78
59
53
57
69
62
40
23
29
23
13
3
11
23
18
6
9
31
50
46
48
70
78
75
88
103
119
116
129
156
165
156
155
170
173
167
165
174
172
161
153
156
135
133
141
130
100
73
77
98
83
41
44
53
33
21
17
27
13
-4
0
27
24
3
5
25
43
35
34
43
39
24
21
33
28
14
25
43
31
9
12
12
-19
-40
-30
-37
-74
-89
-81
-79
-105
-112
-107
-99
-112
-131
-129
-119
-122
-131
-123
-127
-129
-125
-115
-141
-172
-162
-158
-178
-207
-203
-188
-214
-239
-233
-213
-214
-232
-233
-216
-203
-216
-207
-181
-156
-141
-140
-121
-103
-90
-82
-75
-77
-77
-66
-51
-49
-53
-48
-32
-31
-43
-38
-35
-43
-52
-51
-43
-54
-61
-49
-32
-30
-39
-20
22
27
9
32
72
73
60
69
96
89
93
107
96
86
77
71
61
50
37
24
26
14
4
-11
-23
-33
-39
-42
-56
-67
-63
-65
-61
-59
-56
-53
-58
-50
-42
-50
-46
-33
-23
-11
-1
-14
-15
4
5
-22
-27
-10
-27
-32
-22
-16
-4
3
2
4
12
27
25
19
22
28
33
40
51
66
77
84
82
85
104
109
107
104
111
118
111
114
118
114
101
96
101
108
87
63
71
100
96
82
92
102
94
86
66
63
75
78
83
78
72
77
80
75
55
56
57
35
10
17
25
2
-21
8
21
1
-13
-11
-2
-1
-10
-17
-7
4
-9
-17
4
2
-17
-12
2
3
5
16
24
20
18
34
30
33
34
29
25
10
13
18
18
5
3
17
11
-2
7
12
3
3
9
9
4
3
7
20
26
29
28
51
61
40
38
55
80
77
73
85
98
86
84
91
113
103
79
68
77
76
59
46
47
37
25
23
21
16
16
13
7
4
17
25
15
10
24
35
37
31
39
33
35
23
21
22
10
1
15
17
3
-5
-4
-15
-15
-19
-23
-34
-49
-53
-59
-73
-83
-83
-88
-96
-114
-128
-137
-149
-172
-163
-162
-160
-164
-153
-159
-184
-188
-165
-163
-173
-184
-180
-173
-178
-192
-188
-174
-185
-201
-198
-194
-181
-185
-193
-174
-142
-141
-147
-132
-99
-87
-93
-82
-72
-71
-64
-56
-39
-32
-36
-25
-9
0
-12
-20
-1
12
-4
-16
-11
8
11
-5
-7
-2
0
-5
-3
5
8
14
9
6
15
18
5
-7
-2
5
-11
-22
-16
-4
-18
-18
7
16
-2
-18
0
20
15
8
22
43
54
44
46
65
72
71
73
77
83
74
79
98
97
93
86
79
89
93
75
62
70
73
52
51
48
34
25
18
8
2
6
3
-11
4
1
-10
-21
-9
-3
-1
6
0
-8
-21
-26
-23
-32
-41
-48
-43
-33
-52
-67
-53
-32
-44
-67
-70
-75
-83
-96
-93
-94
-89
-81
-83
-76
-81
-87
-90
-89
-85
-92
-98
-83
-79
-85
-93
-87
-73
-94
-110
-87
-67
-71
-70
-61
-46
-33
-29
-7
7
23
16
2
7
25
34
37
26
32
48
47
45
51
45
32
29
49
56
38
27
40
57
34
10
9
20
11
2
10
13
9
9
22
17
5
-9
12
24
0
-9
11
5
-14
-11
-1
6
5
3
-9
-14
-23
-24
-28
-33
-30
-28
-23
-26
-18
-17
-17
-16
-15
-13
-10
-14
-3
13
4
-7
13
42
40
38
41
63
72
73
66
78
103
93
90
125
137
154
190
239
300
359
414
466
496
527
565
603
631
657
677
683
704
723
682
637
600
547
478
396
284
141
-7
-172
-353
-547
-742
-915
-1056
-1189
-1306
-1376
-1412
-1438
-1455
-1432
-1395
-1342
-1271
-1193
-1118
-1043
-965
-890
-812
-734
-651
-568
-509
-473
-415
-364
-355
-353
-318
-278
-274
-280
-263
-232
-217
-199
-161
-108
-58
4
88
200
312
399
506
637
748
825
912
1009
1067
1103
1141
1170
1195
1205
1183
1158
1140
1086
1021
982
938
865
799
762
711
645
589
555
506
443
402
374
339
308
275
258
242
213
185
172
146
105
85
97
79
34
10
4
-16
-52
-76
-101
-118
-138
-190
-224
-241
-269
-300
-330
-355
-362
-395
-419
-424
-439
-457
-474
-472
-474
-480
-476
-467
-448
-426
-413
-384
-342
-303
-284
-259
-218
-174
-164
-142
-97
-63
-57
-47
-36
-31
-20
-22
-36
-50
-41
-46
-56
-72
-79
-58
-41
-29
-31
-7
44
72
80
94
130
163
163
170
206
220
203
190
193
185
170
147
105
64
29
-17
-59
-103
-146
-179
-217
-251
-286
-311
-314
-318
-322
-322
-303
-277
-248
-211
-173
-147
-110
-62
-10
20
36
81
127
140
151
190
217
213
203
216
213
