11111,11111
0,0
82615,82624
107109,119071
107058,118991
106995,118978
107144,119099
107152,119084
107096,119031
107035,118904
107033,118938
107085,119069
107085,118989
107031,118937
106885,118896
106774,118794
106789,118839
106591,118756
106344,118564
106097,118400
105893,118299
105791,118299
105603,118154
105442,118041
105244,117955
105090,117865
105094,117872
105048,117860
104958,117773
104815,117677
104746,117699
104784,117683
104823,117723
104717,117675
104583,117554
104640,117588
104669,117685
104671,117641
104645,117644
104611,117612
104625,117638
104739,117659
104779,117742
104721,117712
104681,117644
104753,117673
104890,117806
104919,117839
104889,117779
104916,117740
104989,117813
105121,117891
105127,117934
105148,117901
105102,117863
105177,117938
105283,118014
105273,118011
105283,118028
105206,117913
105361,118010
105416,118132
105399,118088
105438,118081
105335,117989
105464,118083
105550,118189
105539,118165
105529,118136
105483,118079
105572,118150
105674,118266
105639,118225
105620,118161
105500,118078
105629,118168
105652,118246
105593,118164
105552,118115
105408,118050
105495,118112
105476,118123
105413,118023
105379,118051
105219,117907
105300,117961
105333,118004
105269,117984
105215,117924
105150,117879
105179,117929
105259,117972
105174,117925
105195,117924
105080,117844
105191,117954
105251,118000
105204,117930
105193,117913
105116,117846
105251,117927
105303,118051
105270,117965
105273,117935
105201,117928
105343,118008
105402,118051
105374,118007
105404,118040
105330,117964
105449,118105
105573,118167
105484,118109
105520,118077
105510,118071
105596,118177
105688,118251
105674,118191
105702,118162
105669,118171
105773,118257
105880,118328
105862,118283
105832,118319
105843,118299
106006,118355
106478,118649
106600,118591
106581,118651
106622,118714
104162,117281
104037,117212
104091,117262
104178,117323
104743,117645
104640,117625
104606,117514
104760,117646
104815,117691
104905,117760
104916,117750
104845,117698
104790,117603
104682,117581
104723,117612
104765,117664
104684,117587
104583,117502
104508,117443
104554,117551
104544,117536
104524,117475
104406,117431
104355,117371
104418,117455
104477,117459
104419,117454
104327,117353
104276,117351
104350,117425
104437,117440
104413,117410
104313,117362
104290,117335
104393,117445
104439,117478
104452,117428
104364,117372
104349,117383
104500,117497
104566,117492
104526,117522
104472,117461
104482,117425
104618,117573
104653,117585
104604,117544
104565,117491
104602,117499
104744,117597
104761,117643
104768,117582
104708,117527
104754,117597
104836,117668
104917,117727
104933,117676
104842,117650
104924,117701
105011,117766
105077,117797
105087,117748
105038,117742
105113,117804
105189,117876
105224,117899
105250,117851
105190,117831
105216,117849
105350,117948
105361,117967
105325,117918
105315,117874
105337,117950
105392,117990
105419,117981
105406,117954
105322,117892
105402,117945
105483,118015
105473,118005
105446,117999
105373,117887
105424,117967
105541,118022
105494,118033
105441,117994
105368,117891
105460,117990
105514,118054
105541,118028
105466,118014
105398,117901
105511,118019
105624,118094
105587,118070
105556,118025
105500,117976
105583,118016
105689,118151
105660,118075
105679,118097
105651,118030
105698,118130
105766,118155
105794,118156
105789,118124
105712,118064
105778,118174
105857,118223
105860,118183
105822,118180
105752,118049
105764,118141
105788,118194
105654,118043
105478,117991
105233,117782
105144,117772
105043,117733
104816,117610
103806,117092
103737,117015
103703,116999
103647,116947
103797,117051
103853,117127
103806,117098
103845,117012
103843,117031
103970,117175
104086,117227
104104,117207
104152,117229
104155,117194
104308,117350
104476,117434
104534,117465
104509,117431
104549,117449
104765,117567
104906,117665
104912,117661
104892,117647
104928,117649
105137,117769
105238,117855
105220,117849
105223,117831
105255,117829
105413,117959
105491,117995
105489,117950
105516,117961
105553,117978
105686,118096
105753,118157
105767,118084
105786,118091
105796,118098
105912,118183
105967,118231
105954,118239
105867,118117
105838,118145
105956,118193
105984,118223
105850,118167
105735,118059
105749,118023
105819,118118
105800,118114
105634,118063
105545,117948
105583,117940
105593,118036
105640,118020
105557,117960
105446,117910
105431,117892
105549,117959
105571,117960
105528,117914
105455,117867
105486,117905
105559,117990
105611,117996
105606,117973
105559,117895
105566,117980
105680,118051
105762,118053
105734,118076
105675,117984
105764,118055
105905,118148
105894,118172
105939,118127
105859,118115
105932,118174
106106,118277
106106,118277
106080,118239
106044,118181
106128,118257
106242,118327
106279,118369
106224,118339
106171,118268
106284,118366
106375,118411
106438,118421
106417,118413
106353,118365
106436,118451
106563,118523
106587,118504
106541,118494
106523,118432
106585,118520
106657,118597
106677,118544
106680,118571
106613,118501
106740,118597
106794,118672
106818,118600
106801,118641
106707,118536
106842,118645
106940,118719
106878,118668
106870,118665
106803,118582
106894,118645
106953,118738
106980,118683
106893,118651
106821,118636
106941,118647
107060,118775
106985,118705
106998,118715
106904,118662
106997,118734
107064,118749
107039,118728
107049,118736
106977,118696
107111,118778
107135,118869
107081,118754
107122,118739
107024,118695
107140,118800
107198,118820
107167,118828
107124,118705
107092,118705
107159,118823
107229,118861
107167,118791
107138,118754
107123,118716
107241,118839
107309,118866
107250,118846
107148,118754
107134,118731
107227,118787
107240,118838
107142,118769
106967,118620
106853,118580
106824,118595
106715,118565
106448,118403
106213,118223
106015,118139
105935,118125
105807,118095
105622,117927
105502,117832
105371,117794
105393,117831
105354,117849
105247,117727
105192,117632
105146,117658
105202,117703
105259,117769
105194,117740
105119,117655
105138,117647
105265,117775
105315,117812
105254,117761
105237,117697
105269,117761
105406,117807
105468,117905
105423,117844
105366,117828
105479,117875
105582,117922
105686,117990
105666,118006
105619,117959
105659,117963
105848,118128
105899,118120
105858,118123
105826,118051
105898,118112
106018,118219
106046,118193
106057,118203
106022,118138
106097,118188
106211,118297
106282,118293
106274,118305
106232,118288
106279,118332
106461,118441
106496,118448
106465,118445
106406,118344
106542,118412
106609,118526
106632,118537
106581,118502
106549,118432
106589,118445
106628,118517
106619,118493
106586,118510
106475,118372
106523,118419
106547,118483
106537,118466
106414,118361
106304,118295
106356,118331
106355,118393
106367,118345
106294,118335
106143,118226
106231,118237
106244,118360
106208,118286
106176,118241
106092,118122
106197,118285
106263,118322
106196,118273
106205,118245
106149,118185
106228,118266
106328,118360
106306,118321
106255,118293
106228,118245
106345,118334
106428,118438
106444,118401
106426,118364
106358,118325
106476,118418
106607,118469
106541,118451
106573,118432
106468,118405
106656,118497
106739,118561
106676,118529
106706,118552
106648,118474
106762,118576
106833,118649
106836,118600
106795,118532
106782,118534
106865,118648
106949,118740
106927,118667
106943,118599
106935,118605
106970,118712
107077,118756
107086,118704
107008,118661
107017,118634
107134,118718
107214,118809
107140,118768
107076,118700
107120,118683
107194,118776
107267,118862
107196,118799
107163,118745
107144,118730
107229,118785
107351,118871
107256,118853
107229,118764
107167,118771
107337,118838
107370,118887
107356,118860
107275,118798
107272,118785
107376,118910
107428,118941
107369,118893
107295,118786
107297,118777
107435,118940
107451,118968
107404,118872
107358,118857
107323,118857
107478,118931
107518,118957
107443,118927
107332,118831
107380,118818
107468,118954
107475,119008
107469,118947
107384,118866
107406,118866
107569,118973
107560,118999
107502,118935
107441,118860
107506,118935
107581,118969
107591,118978
107500,118960
107368,118840
107358,118808
107386,118891
107325,118794
107165,118727
106919,118563
106848,118525
106732,118555
106567,118435
106402,118323
106192,118164
106048,118117
106064,118139
105993,118106
105837,117996
105715,117914
105701,117946
105781,117974
105714,117989
105706,117933
105595,117847
105666,117889
105735,117982
105710,117963
105747,117978
105620,117891
105710,117927
105810,117990
105839,118035
105773,117988
105761,117955
105868,118064
105954,118104
105978,118115
105990,118107
105907,118053
106003,118120
106143,118214
106134,118209
106141,118164
106077,118127
106205,118229
106254,118292
106229,118301
106251,118274
106238,118215
106331,118257
106447,118381
106408,118373
106373,118309
106371,118283
106488,118401
106620,118507
106625,118499
106609,118415
106608,118387
106722,118527
106826,118565
106796,118549
106801,118542
106749,118504
106834,118565
106939,118639
106877,118579
106872,118574
106758,118524
106840,118536
106913,118619
106825,118578
106771,118535
106629,118454
106748,118522
106764,118584
106733,118502
106648,118410
106583,118392
106588,118434
106609,118475
106589,118421
106490,118372
106441,118307
106528,118405
106584,118433
106516,118394
106441,118327
106440,118272
106527,118418
106603,118473
106567,118387
106541,118395
106499,118374
106603,118413
106703,118481
106699,118473
106608,118416
106647,118443
106758,118523
106840,118552
106806,118550
106825,118529
106802,118533
106936,118645
106956,118680
106970,118609
106965,118579
106975,118621
107094,118705
107186,118782
107122,118757
107129,118662
107160,118695
107260,118770
107348,118866
107272,118806
107246,118736
107325,118815
107407,118856
107466,118940
107411,118845
107401,118829
107382,118799
107514,118947
107583,118957
107551,118961
107470,118878
107490,118894
107588,119002
107646,119024
107628,118948
107553,118921
107560,118943
107675,118996
107697,119036
107642,118993
107589,118959
107597,118975
107713,119036
107771,119071
107696,119030
107630,118929
107708,118997
107772,119081
107786,119031
107748,119072
107684,119000
107703,119040
107832,119096
107823,119122
107798,119081
107731,119006
107787,119056
107903,119121
107901,119125
107821,119083
107778,119005
107834,119088
107885,119122
107914,119143
107808,119077
107744,119007
107775,119050
107778,119057
107706,119002
107567,118891
107334,118783
107223,118727
107052,118672
106839,118533
106599,118369
106284,118199
106191,118179
106065,118166
105950,118039
105783,117958
105608,117799
105631,117859
105642,117886
105541,117863
105485,117795
105382,117677
105465,117794
105555,117852
105445,117824
105479,117775
105401,117709
105467,117779
105573,117870
105578,117853
105520,117828
105494,117768
105675,117926
105768,117986
105736,117997
105768,117941
105704,117928
105854,118013
105950,118097
105999,118070
105964,118073
105971,118060
106104,118145
106203,118242
106213,118230
106223,118156
106213,118195
106313,118288
106450,118355
106443,118343
106412,118282
106451,118293
106553,118394
106674,118474
106650,118454
106647,118403
106632,118418
106776,118514
106897,118605
106859,118536
106818,118560
106851,118502
106974,118617
107012,118656
107005,118656
106958,118577
106859,118572
106998,118657
106992,118642
106943,118575
106796,118550
106779,118491
106811,118562
106805,118566
106732,118454
106606,118388
106549,118382
106570,118391
106594,118407
106478,118388
106403,118279
106347,118246
106398,118337
106407,118316
106384,118305
106257,118211
106279,118208
106346,118285
106384,118342
106295,118248
106231,118186
106312,118227
106400,118341
106436,118345
106446,118310
106393,118253
106440,118329
106568,118418
106608,118418
106647,118445
106562,118382
106640,118429
106791,118529
106831,118539
106799,118562
106799,118481
106885,118551
106998,118626
106999,118631
107006,118658
107013,118582
107017,118654
107164,118695
107207,118725
107172,118728
107121,118656
107219,118702
107289,118810
107333,118817
107313,118770
107267,118703
107344,118783
107455,118899
107426,118914
107434,118828
107388,118788
107428,118831
107553,118893
107608,118951
107491,118874
107485,118842
107556,118904
107611,118970
107676,118948
107618,118963
107520,118848
107618,118963
107720,119059
107721,118985
107675,118969
107615,118913
107707,119015
107788,119066
107785,119029
107747,119015
107646,118925
107775,118988
107831,119080
107829,119050
107788,119032
107719,118941
107794,118995
107914,119135
107820,119077
107775,119002
107704,118948
107800,119018
107880,119081
107883,119100
107812,119005
107712,118967
107854,119069
107916,119098
107864,119047
107771,119009
107639,118904
107698,118986
107647,118957
107507,118859
107310,118747
106985,118566
106887,118482
106706,118451
106435,118288
106225,118119
105949,118016
105943,117956
105879,117997
105719,117866
105579,117788
105509,117743
105513,117796
105540,117807
105517,117784
105452,117716
105408,117677
105518,117765
105558,117849
105475,117801
105462,117722
105473,117737
105565,117819
105673,117889
105658,117848
105694,117857
105672,117874
105831,117982
105965,118030
105944,118030
105946,118024
105978,118061
106150,118136
106241,118206
106268,118205
106286,118188
106316,118209
106434,118312
106586,118415
106548,118385
106561,118339
106622,118366
106707,118459
106822,118548
106807,118488
106755,118452
106827,118491
106979,118590
107055,118639
107030,118630
107008,118549
107073,118617
107201,118700
107262,118737
107276,118715
107252,118699
107266,118726
107369,118781
107426,118830
107401,118783
107286,118731
107293,118773
107384,118786
107363,118796
107285,118782
107148,118657
107183,118633
107150,118716
107159,118680
107081,118624
106973,118530
106925,118544
106965,118611
106920,118567
106876,118521
106766,118398
106807,118491
106841,118497
106841,118528
106798,118438
106669,118409
106738,118423
106818,118497
106791,118535
106764,118428
106708,118369
106775,118479
106889,118526
106879,118546
106856,118516
106775,118459
106867,118477
106958,118586
107028,118577
106975,118587
106893,118558
107043,118565
107090,118655
107143,118661
107113,118625
107080,118577
107192,118694
107273,118752
107252,118759
107268,118697
107209,118676
107312,118722
107388,118795
107405,118804
107395,118772
107346,118742
107412,118776
107526,118882
107541,118848
107485,118861
107386,118764
107511,118862
107626,118946
107602,118880
107563,118888
107482,118816
107635,118894
107732,118971
107681,118951
107623,118913
107584,118845
107724,118959
107783,119015
107775,118964
107735,118966
107661,118948
107754,118952
107824,119028
107807,118990
107761,118988
107689,118928
107852,119018
107882,119080
107839,119036
107798,118969
107765,118948
107889,119082
107926,119096
107887,119038
107871,119007
107813,118961
107878,119092
107960,119110
107933,119070
107860,119035
107808,118949
107974,119087
108010,119095
107963,119073
107844,119036
107799,118974
107994,119089
107972,119114
107884,119024
107786,118927
107673,118911
107641,118904
107562,118857
107329,118742
107059,118570
106874,118455
106733,118398
106543,118352
106315,118153
106092,118002
105950,117906
105925,117939
105898,117937
105748,117875
105591,117759
105601,117761
105641,117841
105653,117852
105601,117777
105517,117684
105574,117765
105630,117824
105666,117878
105675,117851
105632,117775
105729,117865
105837,117925
105919,117982
105914,118011
105859,117955
105991,118008
106080,118112
106210,118143
106226,118152
106222,118146
106287,118191
106451,118267
106538,118322
106538,118357
106550,118267
106664,118366
106784,118513
106843,118511
106869,118443
106835,118455
106916,118516
107008,118614
107076,118624
107038,118594
106995,118522
107142,118605
107244,118737
107263,118740
107254,118718
107188,118627
107303,118721
107427,118800
107440,118804
107412,118751
107355,118725
107402,118811
107492,118853
107538,118849
107452,118795
107301,118726
107347,118774
107390,118792
107367,118745
107295,118746
107160,118605
107208,118656
107183,118722
107119,118648
107095,118567
106975,118496
106980,118534
107051,118559
106927,118572
106886,118481
106815,118411
106829,118486
106895,118570
106870,118478
106859,118475
106746,118406
106840,118444
106929,118548
106900,118547
106870,118468
106800,118423
106913,118533
107011,118597
106978,118531
107000,118552
106950,118515
107065,118614
107161,118661
107167,118655
107146,118647
107115,118577
107230,118670
107315,118749
107301,118748
107300,118669
107262,118665
107354,118753
107462,118832
107414,118799
107395,118740
107367,118762
107497,118824
107602,118889
107515,118878
107506,118813
107457,118780
107607,118854
107737,118960
107653,118903
107607,118872
107589,118820
107742,118939
107795,118991
107723,118914
107647,118880
107680,118893
107789,118995
107841,119011
107840,118953
107767,118959
107721,118914
107877,118999
107945,119054
107875,119010
107870,118968
107811,118958
107928,119037
107977,119100
107929,119019
107894,118948
107892,119006
107948,119072
107993,119090
107991,119057
107889,119032
107909,118979
108027,119086
108058,119145
107975,119041
107916,119003
107949,118992
108063,119124
108073,119131
108031,119055
107958,119001
107988,119021
108087,119139
108102,119134
108048,119071
107996,119040
108006,119025
108093,119095
108023,119115
107945,118973
107792,118899
107719,118901
107689,118879
107522,118767
107328,118691
107058,118519
106884,118419
106833,118448
106656,118329
106469,118198
106277,118063
106215,118091
106192,118077
106203,118073
106082,118020
105993,117927
105993,117939
106088,118043
106102,118039
106047,117961
105957,117939
106052,117969
106171,118052
106149,118099
106137,118028
106080,117989
106183,118076
106305,118164
106344,118199
106306,118124
106284,118117
106363,118213
106500,118311
106543,118247
106596,118297
106514,118262
106612,118298
106777,118423
106796,118414
106807,118407
106800,118374
106894,118445
107027,118536
107004,118515
107047,118552
107007,118472
107137,118602
107224,118667
107234,118644
107232,118665
107130,118562
107335,118679
107406,118771
107415,118761
107354,118747
107345,118648
107446,118784
107537,118800
107536,118771
107501,118767
107388,118720
107479,118799
107562,118840
107512,118809
107409,118728
107328,118665
107417,118761
107425,118782
107344,118694
107294,118654
107169,118557
107266,118673
107273,118683
107162,118595
107113,118542
107024,118479
107100,118540
107121,118608
107026,118543
106946,118459
106944,118420
106969,118507
107005,118565
106996,118520
106905,118457
106874,118437
106986,118514
107029,118577
106985,118488
106956,118465
106896,118471
107026,118505
107103,118570
107059,118559
106995,118524
106942,118486
107107,118605
107145,118661
107129,118558
107094,118538
107050,118572
107173,118616
107260,118692
107249,118670
107161,118577
107175,118630
107278,118676
107369,118726
107329,118714
107256,118660
107315,118620
107406,118751
107420,118801
107391,118691
107359,118705
107366,118691
107469,118749
107517,118852
107438,118739
107403,118718
107438,118719
107527,118790
107572,118845
107552,118789
107453,118735
107504,118781
107645,118833
107637,118886
107581,118833
107518,118794
107577,118814
107662,118905
107691,118911
107654,118870
107587,118783
107647,118837
107745,118938
107727,118912
107712,118892
107647,118806
107671,118865
107762,118966
107802,118932
107735,118892
107674,118812
107752,118891
107833,118967
107812,118983
107817,118916
107745,118886
107772,118926
107866,118976
107894,118965
107851,118934
107795,118892
107795,118918
107884,118986
107911,118961
107793,118961
107650,118824
107743,118881
107742,118892
107626,118787
107446,118695
107172,118554
107045,118484
106945,118467
106757,118346
106533,118213
106297,118045
106214,118053
106176,118092
106033,117926
105957,117878
105802,117777
105847,117856
105871,117908
105791,117798
105747,117814
105624,117695
105787,117788
105831,117912
105800,117780
105736,117800
105711,117714
105800,117838
105920,117925
105883,117843
105847,117829
105827,117823
105915,117920
106027,117966
106008,117954
106011,117965
105969,117902
106137,118043
106217,118085
106245,118082
106226,118060
106206,118019
106348,118177
106455,118245
106426,118191
106444,118160
106454,118159
106536,118274
106647,118306
106645,118309
106638,118255
106675,118276
106762,118377
106900,118465
106855,118450
106842,118389
106878,118367
107005,118495
107134,118580
107092,118531
107032,118475
107030,118473
107186,118547
107211,118623
107170,118548
107104,118501
107019,118488
107092,118548
107126,118535
107039,118503
106966,118424
106915,118447
106935,118459
106947,118466
106888,118421
106750,118312
106710,118302
106756,118343
106782,118361
106659,118328
106556,118207
106563,118206
106604,118285
106634,118290
106534,118221
106455,118194
106481,118194
106579,118255
106632,118306
106571,118262
106488,118167
106563,118189
106689,118337
106714,118362
106736,118295
106652,118261
106691,118323
106826,118375
106917,118426
106881,118426
106814,118354
106863,118405
106977,118454
107090,118516
107019,118514
107002,118441
107027,118471
107128,118588
107193,118561
107166,118578
107101,118469
107141,118572
107240,118665
107271,118642
107314,118621
107253,118570
107254,118636
107385,118679
107429,118734
107389,118635
107310,118579
107380,118677
107466,118738
107498,118780
107478,118702
107407,118670
107487,118691
107598,118773
107606,118785
107547,118743
107482,118694
107563,118811
107624,118810
107709,118824
107639,118821
107528,118740
107640,118790
107735,118882
107700,118859
107727,118845
107651,118790
107715,118833
107835,118936
107756,118893
107783,118898
107678,118786
107844,118923
107903,118953
107850,118927
107864,118932
107735,118874
107885,118896
107993,119032
107945,118959
107890,118930
107795,118825
107908,118921
107952,119010
107858,118902
107760,118828
107610,118761
107594,118767
107561,118718
107282,118623
107023,118408
106701,118272
106590,118190
106465,118147
106208,118001
106038,117876
105821,117770
105803,117797
105776,117805
105695,117740
105584,117643
105506,117560
105521,117655
105550,117720
105525,117623
105510,117607
105430,117561
105562,117640
105607,117733
105560,117668
105502,117635
105536,117610
105628,117698
105732,117810
105735,117715
105748,117738
105691,117745
105856,117851
105938,117897
105962,117908
105931,117864
105972,117857
106132,117987
106287,118063
106238,118053
106241,118007
106240,118054
106415,118144
106544,118205
106522,118199
106526,118138
106554,118219
106682,118290
106753,118359
106711,118297
106705,118228
106760,118325
106873,118382
106961,118428
106916,118403
106903,118354
106961,118413
107041,118488
107126,118496
107067,118478
107015,118429
107048,118405
107147,118523
107125,118551
107070,118457
106956,118422
106935,118402
107036,118467
106990,118444
106911,118407
106791,118298
106786,118309
106844,118344
106763,118307
106731,118262
106603,118205
106549,118148
106603,118231
106586,118224
106505,118154
106377,118056
106426,118082
106458,118163
106451,118167
106394,118065
106310,118033
106371,118055
106411,118152
106406,118137
106396,118128
106294,118019
106380,118103
106474,118145
106493,118150
106469,118162
106393,118048
106503,118138
106619,118232
106573,118187
106607,118197
106512,118167
106652,118205
106719,118294
106710,118280
106754,118284
106663,118254
106767,118284
106837,118344
106888,118370
106870,118343
106796,118273
106929,118379
106973,118475
107008,118436
107006,118379
106888,118336
107039,118405
107100,118530
107082,118454
107110,118496
107016,118395
107101,118487
107217,118550
107193,118537
107170,118495
107123,118402
107240,118549
107282,118601
107272,118567
107250,118522
107186,118482
107291,118603
107389,118634
107363,118595
107337,118596
107245,118560
107379,118615
107429,118664
107439,118631
107416,118648
107321,118552
107479,118674
107512,118743
107515,118698
107513,118638
107416,118624
107511,118713
107576,118767
107538,118702
107555,118685
107517,118678
107586,118728
107658,118809
107615,118714
107514,118694
107459,118628
107537,118713
107592,118742
107427,118671
107241,118521
107098,118402
106994,118385
106839,118319
106547,118127
106300,117968
106023,117850
105954,117791
105867,117771
105665,117636
105550,117549
105375,117538
105396,117505
105438,117558
105300,117425
105227,117395
105176,117411
105283,117469
105276,117538
105255,117417
105180,117384
105180,117408
105249,117453
105324,117496
105333,117516
105292,117444
105313,117472
105466,117584
105503,117635
105480,117564
105489,117529
105519,117596
105664,117700
105791,117773
105746,117735
105712,117671
105823,117746
105946,117830
106067,117940
106072,117910
106019,117884
106081,117872
106242,118009
106333,118048
106277,118007
106268,117966
106306,118050
106427,118119
106504,118195
106530,118155
106472,118106
106565,118147
106668,118260
106716,118314
106721,118245
106706,118213
106750,118255
106830,118354
106895,118314
106843,118339
106760,118233
106819,118322
106915,118368
106871,118376
106810,118311
106666,118195
106683,118234
106741,118263
106704,118251
106608,118189
106468,118097
106515,118107
106556,118162
106527,118117
106363,118083
106278,117984
106327,118019
106338,118079
106350,118038
106296,118021
106204,117933
106276,117996
106306,118071
106298,118036
106285,117969
106173,117927
106298,118029
106377,118103
106368,118057
106335,118062
106294,117948
106367,118049
106516,118146
106425,118114
106444,118085
106399,118026
106521,118117
106597,118244
106563,118156
106566,118149
106540,118115
106626,118228
106733,118260
106783,118273
106741,118246
106660,118170
106817,118307
106905,118356
106871,118306
106859,118294
106814,118295
106926,118368
106948,118378
106992,118408
106988,118354
106898,118336
107035,118387
107067,118487
107080,118426
107058,118375
107015,118384
107144,118467
107242,118543
107134,118456
107117,118432
107125,118420
107212,118544
107319,118565
107246,118553
107196,118493
107239,118492
107322,118600
107367,118599
107323,118607
107293,118531
107297,118499
107432,118613
107482,118696
107432,118597
107386,118587
107333,118571
107455,118639
107538,118691
107470,118648
107438,118583
107414,118630
107501,118656
107610,118727
107517,118690
107527,118625
107547,118630
107607,118752
107617,118739
107622,118730
107519,118643
107512,118623
107550,118694
107559,118680
107362,118571
107162,118402
107006,118325
106916,118317
106771,118243
106472,118039
106177,117879
106001,117778
105971,117772
105839,117737
105703,117646
105503,117510
105487,117495
105529,117546
105450,117546
105440,117449
105314,117406
105333,117425
105439,117552
105416,117509
105399,117467
105389,117445
105432,117486
105484,117576
105545,117599
105525,117560
105508,117491
105621,117613
105707,117702
105810,117723
105811,117695
105768,117657
105852,117757
106029,117848
106080,117889
106115,117890
106098,117822
106235,117932
106333,118033
106417,118038
106409,118052
106379,117983
106494,118120
106601,118160
106712,118169
106674,118213
106641,118123
106735,118246
106851,118296
106885,118330
106853,118291
106854,118248
106964,118363
107056,118443
107080,118427
107069,118396
107011,118319
107122,118449
107170,118493
107169,118487
107138,118429
107075,118398
107127,118460
107157,118491
107152,118459
107070,118439
106928,118279
107033,118362
107045,118439
106968,118353
106902,118306
106743,118214
106806,118244
106902,118306
106780,118298
106713,118204
106572,118135
106713,118202
106765,118242
106658,118170
106663,118157
106547,118132
106662,118174
106685,118244
106635,118201
106632,118140
106599,118140
106708,118208
106745,118264
106752,118241
106732,118184
106674,118153
106827,118272
106898,118329
106831,118300
106835,118241
106831,118235
106951,118372
106992,118401
106995,118334
106952,118329
106939,118286
107024,118396
107136,118427
107080,118423
107020,118364
107026,118328
107125,118427
107223,118460
107171,118478
107093,118408
107077,118418
107247,118492
107312,118538
107257,118534
107222,118478
107218,118438
107316,118547
107366,118587
107348,118531
107325,118467
107297,118539
107410,118583
107454,118641
107440,118569
107381,118561
107436,118535
107519,118665
107534,118664
107513,118615
107401,118573
107469,118617
107587,118710
107592,118655
107533,118663
107497,118596
107491,118620
107642,118706
107664,118747
107597,118662
107563,118613
107585,118646
107711,118750
107695,118777
107657,118717
107599,118651
107690,118738
107759,118755
107807,118795
107746,118745
107704,118706
107689,118722
107791,118772
107828,118820
107783,118753
107654,118649
107644,118682
107601,118713
107523,118608
107356,118488
107124,118354
106978,118305
106860,118275
106758,118205
106496,118079
106240,117855
106198,117891
106143,117871
106020,117766
105938,117743
105780,117653
105820,117708
105856,117744
105801,117696
105755,117665
105693,117611
105757,117672
105868,117772
105814,117744
105835,117689
105778,117660
105852,117741
105984,117795
105980,117794
106013,117805
105955,117759
106085,117848
106157,117929
106251,117959
106222,117954
106209,117870
106329,118007
106468,118053
106451,118087
106499,118071
106397,118024
106562,118105
106680,118200
106704,118200
106685,118188
106631,118134
106783,118228
106883,118311
106853,118277
106921,118279
106802,118267
106952,118314
107077,118422
107067,118394
107061,118362
107014,118354
107154,118406
107194,118486
107213,118453
107165,118415
107103,118403
107184,118476
107210,118480
107195,118459
107149,118406
107037,118344
107089,118409
107150,118437
107047,118402
106942,118302
106908,118256
106967,118334
106959,118380
106899,118264
106801,118223
106739,118144
106821,118236
106750,118283
106703,118175
106648,118136
106594,118089
106638,118174
106723,118203
106664,118153
106598,118141
106522,118078
106668,118143
106692,118225
106673,118182
106599,118128
106603,118143
106665,118193
106742,118205
106684,118189
106683,118143
106673,118158
106760,118224
106882,118330
106803,118248
106771,118213
106806,118199
106929,118326
106956,118391
106921,118302
106896,118287
106917,118257
107035,118378
107062,118416
107034,118364
106957,118312
107027,118305
107096,118424
107140,118438
107098,118387
107036,118347
107096,118371
107209,118472
107209,118466
107206,118471
107113,118387
107201,118430
107253,118525
107301,118488
107270,118498
107187,118419
107279,118457
107384,118583
107368,118561
107377,118512
107302,118448
107372,118503
107395,118597
107419,118605
107416,118539
107381,118495
107439,118516
107546,118643
107552,118619
107551,118599
107408,118550
107471,118558
107566,118667
107605,118686
107526,118637
107452,118517
107563,118651
107619,118681
107652,118713
107614,118676
107497,118603
107573,118637
107665,118694
107634,118698
107544,118632
107413,118525
107427,118559
107338,118538
107175,118431
106960,118290
106630,118083
106503,118060
106344,117999
106097,117832
105921,117713
105686,117548
105658,117599
105655,117599
105498,117493
105417,117426
105278,117321
105344,117422
105400,117453
105342,117414
105295,117374
105180,117282
105283,117379
105368,117444
105325,117424
105297,117420
105242,117328
105355,117437
105446,117472
105437,117478
105398,117486
105420,117411
105533,117510
105641,117577
105670,117614
105638,117598
105625,117551
105780,117673
105844,117763
105906,117734
105899,117713
105905,117692
106021,117808
106112,117894
106155,117897
106091,117840
106134,117816
106241,117935
106327,118041
106302,117955
106340,117940
106264,117938
106420,118064
106539,118101
106542,118080
106516,118079
106498,118066
106632,118173
106686,118225
106680,118192
106637,118114
106619,118152
106691,118177
106817,118216
106709,118176
106610,118142
106596,118076
106663,118157
106651,118183
106523,118086
106449,117957
106383,117971
106430,118041
106409,118067
106319,117969
106196,117882
106190,117876
106209,117932
106238,117938
106122,117862
106025,117796
106078,117780
106117,117859
106152,117897
106061,117841
105984,117717
106035,117803
106118,117862
106159,117891
106105,117865
106019,117779
106075,117841
106178,117888
106265,117933
106249,117931
106159,117879
106212,117866
106318,118002
106417,118033
106356,118020
106300,117934
106343,117991
106480,118085
106507,118123
106496,118095
106453,117969
106544,118092
106628,118185
106668,118188
106639,118123
106608,118083
106654,118159
106778,118223
106809,118229
106766,118201
106718,118191
106766,118211
106897,118285
106923,118313
106911,118290
106831,118237
106918,118324
106981,118359
107023,118350
106994,118357
106892,118282
107007,118365
107091,118407
107117,118376
107121,118392
106966,118328
107100,118400
107187,118483
107151,118424
107179,118397
107067,118386
107190,118415
107258,118523
107223,118478
107219,118463
107147,118348
107237,118465
107309,118511
107248,118525
107259,118477
107194,118400
107263,118476
107359,118537
107301,118539
107289,118502
107224,118404
107251,118491
107392,118555
107310,118513
107248,118454
107162,118373
107176,118439
107144,118431
106957,118276
106744,118156
106430,117991
106302,117912
106135,117865
105816,117667
105651,117524
105457,117467
105407,117420
105348,117476
105224,117320
105141,117235
104969,117212
105011,117220
105035,117265
104946,117208
104896,117129
104871,117100
104891,117161
104947,117215
104880,117154
104854,117122
104822,117067
104928,117178
105013,117288
104933,117225
104927,117183
104949,117183
105022,117274
105142,117334
105130,117335
105095,117330
105082,117299
105248,117415
105365,117420
105371,117445
105302,117428
105317,117396
105463,117511
105528,117593
105510,117537
105503,117501
105477,117496
105624,117633
105671,117652
105611,117600
105577,117583
105609,117611
105745,117692
105768,117728
105774,117702
105702,117627
105789,117672
105903,117797
105897,117789
105915,117757
105848,117661
105876,117765
106019,117814
105972,117854
105922,117754
105844,117706
105838,117724
105872,117775
105841,117743
105751,117650
105674,117620
105609,117630
105633,117624
105664,117619
105561,117576
105464,117487
105355,117476
105427,117499
105445,117512
105389,117454
105281,117415
105278,117403
105354,117463
105403,117487
105360,117437
105263,117387
105315,117392
105417,117501
105418,117530
105410,117453
105340,117395
105412,117463
105520,117550
105534,117604
105535,117536
105458,117484
105559,117562
105670,117640
105679,117634
105696,117645
105601,117620
105722,117674
105865,117763
105838,117751
105876,117755
105821,117668
105959,117777
106055,117916
106072,117830
106079,117814
106015,117785
106158,117858
106244,117975
106251,117943
106276,117921
106208,117885
106327,118000
106372,118028
106434,118071
106422,118042
106319,117982
106483,118071
106537,118144
106596,118115
106519,118095
106471,118014
106592,118111
106693,118173
106689,118194
106626,118182
106557,118053
106714,118185
106804,118253
106753,118239
106737,118229
106639,118112
106803,118250
106804,118314
106830,118277
106796,118229
106732,118200
106799,118261
106912,118326
106903,118265
106868,118260
106845,118216
106908,118340
106950,118348
106953,118351
106924,118274
106889,118261
106980,118361
107047,118435
107008,118340
107017,118329
106922,118278
107054,118402
107082,118440
107082,118361
107007,118358
106913,118272
107007,118343
107014,118363
106844,118251
106680,118088
106423,118053
106318,117950
106139,117862
105856,117718
105588,117503
105351,117419
105291,117364
105254,117384
105083,117282
104928,117144
104836,117113
104863,117115
104873,117200
104740,117083
104634,117001
104675,117007
104657,117074
104715,117062
104696,117056
104580,116993
104647,116998
104708,117119
104792,117158
104740,117082
104707,117040
104746,117093
104893,117157
104939,117257
104937,117203
104942,117203
104964,117219
105126,117310
105254,117382
105246,117360
105198,117341
105269,117379
105401,117484
105441,117524
105446,117498
105442,117458
105508,117532
105547,117632
105665,117622
105680,117610
105682,117576
105690,117658
105804,117712
105863,117738
105869,117727
105829,117667
105907,117752
106036,117829
106063,117858
106079,117810
106041,117768
106086,117829
106253,117925
106197,117939
106204,117897
106093,117835
106162,117854
106231,117945
106203,117887
106156,117858
106015,117788
106022,117844
106056,117814
106064,117801
105974,117753
105868,117679
105890,117741
105903,117734
105930,117728
105836,117675
105763,117611
105820,117634
105863,117727
105794,117669
105786,117626
105710,117597
105812,117677
105817,117722
105829,117727
105836,117676
105788,117631
105888,117717
105982,117824
105950,117774
105950,117765
105911,117682
106039,117834
106141,117885
106129,117867
106125,117859
106101,117820
106224,117915
106326,117956
106324,117926
106331,117965
106272,117902
106403,118017
106472,118063
106477,118024
106498,118040
106440,117982
106577,118087
106644,118178
106629,118104
106653,118112
106580,118073
106720,118191
106818,118224
106751,118193
106762,118140
106741,118143
106853,118248
106933,118289
106859,118238
106843,118210
106821,118182
106928,118281
107000,118344
106961,118331
106943,118261
106903,118233
107023,118309
107112,118378
107069,118332
107044,118297
106964,118291
107144,118353
107172,118442
107152,118385
107104,118339
107073,118333
107156,118421
107246,118421
107208,118397
107157,118343
107145,118349
107218,118465
107256,118448
107212,118423
107142,118374
107172,118339
107258,118441
107254,118486
107220,118431
107200,118386
107168,118376
107277,118447
107331,118544
107299,118450
107209,118398
107249,118418
107341,118459
107389,118558
107356,118501
107246,118436
107283,118447
107365,118502
107383,118505
107285,118429
107133,118315
107062,118348
107016,118323
106920,118248
106658,118080
106402,117919
106183,117795
106072,117777
105859,117675
105710,117544
105487,117417
105393,117381
105360,117420
105301,117335
105240,117277
105071,117221
105094,117232
105173,117297
105130,117285
105098,117265
104968,117166
105066,117237
105192,117309
105163,117339
105109,117283
105089,117230
105142,117301
105263,117336
105330,117409
105283,117385
105205,117316
105331,117424
105463,117450
105567,117513
105520,117537
105478,117474
105603,117551
105707,117622
105744,117641
105738,117657
105691,117554
105858,117685
105922,117792
105918,117770
105983,117724
105889,117683
106013,117801
106146,117872
106106,117835
106151,117817
106055,117750
106194,117903
106298,117962
106341,117964
106330,117934
106266,117864
106437,117991
106482,118064
106438,118011
106440,118019
106400,117931
106441,117989
106553,118076
106434,118039
106371,117939
106257,117877
106332,117937
106357,117979
106248,117913
106206,117864
106063,117768
106125,117833
106155,117869
106076,117800
105962,117721
105923,117674
106001,117757
105972,117763
105938,117751
105912,117675
105805,117616
105924,117697
105990,117789
105900,117676
105906,117651
105843,117645
105912,117744
106021,117790
105970,117759
105927,117735
105945,117704
106032,117781
106149,117805
106095,117834
106047,117767
106092,117771
106193,117874
106289,117927
106269,117915
106205,117843
106255,117870
106387,117980
106397,118006
106383,117983
106373,117898
106426,117953
106494,118063
106581,118071
106565,118045
106486,118027
106525,118005
106685,118133
106692,118179
106666,118137
106643,118069
106683,118114
106785,118216
106828,118211
106797,118191
106755,118102
106820,118156
106873,118247
106931,118286
106893,118250
106815,118146
106858,118198
106962,118280
107001,118294
106932,118280
106875,118190
106922,118238
107020,118300
107034,118362
107001,118309
106968,118218
106986,118301
107055,118322
107065,118401
107038,118325
106995,118246
107039,118270
107148,118387
107153,118392
107120,118331
107052,118312
107066,118329
107203,118408
107199,118441
107184,118369
107093,118252
107132,118353
107280,118450
107216,118408
107208,118384
107126,118328
107228,118399
107318,118492
107263,118413
107260,118398
107160,118376
107233,118395
107339,118478
107324,118461
107288,118446
107176,118329
107260,118408
107341,118469
107268,118403
107222,118371
107042,118270
107024,118297
107017,118291
106830,118156
106583,118048
106324,117818
106165,117786
106079,117763
105859,117630
105675,117509
105415,117375
105415,117404
105465,117433
105331,117343
105226,117306
105089,117202
105137,117240
105221,117298
105151,117239
105081,117259
104996,117134
105138,117222
105161,117284
105129,117237
105133,117259
105043,117152
105164,117268
105255,117341
105239,117299
105262,117286
105182,117305
105306,117354
105419,117471
105411,117421
105412,117384
105352,117383
105496,117489
105592,117600
105589,117517
105617,117495
105565,117499
105756,117608
105825,117676
105765,117614
105784,117572
105787,117585
105904,117699
106010,117766
105993,117752
105917,117731
105941,117699
106101,117825
106202,117870
106192,117836
106131,117785
106152,117844
106273,117905
106356,117937
106327,117925
106305,117900
106262,117890
106378,117936
106425,118015
106348,117919
106269,117878
106215,117850
106275,117868
106255,117947
106148,117801
106069,117742
106031,117706
106066,117803
106041,117782
105920,117686
105832,117625
105791,117575
105843,117647
105823,117659
105765,117588
105675,117548
105643,117508
105757,117593
105740,117634
105690,117550
105633,117514
105642,117569
105701,117579
105815,117626
105736,117613
105681,117576
105714,117617
105799,117626
105897,117700
105910,117673
105816,117628
105905,117680
106045,117765
106081,117844
106080,117781
106046,117739
106130,117807
106221,117899
106281,117907
106256,117895
106232,117818
106310,117927
106466,118022
106478,118019
106437,117985
106422,117928
106494,118016
106629,118080
106631,118104
106633,118087
106532,118008
106642,118072
106778,118173
106783,118131
106743,118147
106692,118093
106782,118166
106880,118202
106899,118219
106841,118211
106820,118147
106916,118211
106956,118298
107014,118274
106998,118235
106913,118179
106979,118264
107086,118312
107076,118358
107031,118285
106981,118228
107063,118333
107194,118369
107173,118358
107108,118342
107017,118214
107148,118354
107224,118420
107199,118398
107137,118374
107071,118242
107191,118367
107260,118440
107252,118409
107203,118398
107092,118335
107215,118410
107310,118437
107302,118425
107304,118433
107165,118359
107257,118410
107400,118495
107341,118460
107326,118429
107227,118368
107372,118480
107346,118510
107325,118437
107281,118397
107110,118306
107147,118342
107081,118294
106861,118184
106579,118036
106317,117825
106145,117804
105981,117713
105734,117538
105508,117427
105330,117279
105331,117315
105272,117344
105128,117201
104981,117131
104901,117079
104968,117151
104977,117138
104842,117080
104802,117038
104736,117008
104882,117105
104895,117136
104856,117077
104823,117019
104758,117021
104892,117132
104995,117181
104922,117137
104942,117092
104917,117135
105073,117225
105156,117297
105151,117272
105121,117219
105189,117261
105352,117387
105392,117436
105407,117401
105366,117350
105396,117386
105568,117514
105591,117581
105617,117525
105604,117497
105616,117520
105754,117600
105810,117619
105801,117621
105697,117553
105803,117614
105895,117721
105984,117711
105966,117703
105900,117705
105980,117701
106131,117792
106137,117869
106159,117816
106122,117760
106199,117826
106220,117887
106272,117908
106216,117847
106131,117798
106153,117764
106153,117887
106162,117815
106089,117759
105951,117640
105950,117683
105984,117771
105939,117713
105826,117650
105721,117539
105708,117583
105756,117584
105707,117591
105658,117554
105557,117460
105592,117525
105618,117519
105661,117545
105568,117484
105526,117437
105564,117520
105620,117523
105664,117568
105614,117516
105598,117444
105684,117548
105728,117605
105771,117641
105764,117582
105721,117561
105837,117662
105891,117712
105963,117740
105927,117696
105929,117642
106036,117753
106128,117830
106150,117824
106170,117797
106044,117736
106213,117841
106338,117940
106306,117917
106347,117912
106262,117837
106409,117933
106507,118029
106525,118008
106506,118007
106433,117949
106570,118009
106702,118138
106644,118096
106654,118072
106564,118031
106693,118086
106792,118197
106780,118135
106737,118126
106709,118072
106844,118185
106904,118228
106872,118179
106845,118169
106821,118114
106927,118231
106987,118284
106931,118242
106907,118175
106881,118177
106984,118282
107035,118306
106962,118237
106957,118220
106900,118195
107012,118246
107086,118319
106994,118259
106954,118223
106939,118228
107041,118300
107121,118316
107049,118320
107002,118214
106948,118236
107070,118317
107112,118331
107074,118281
107069,118278
107032,118247
107131,118363
107190,118408
107118,118341
107087,118229
107103,118307
107161,118347
107165,118385
107130,118338
107050,118237
107084,118266
107070,118301
107061,118305
106875,118191
106654,118001
106472,117906
106385,117900
106100,117768
105837,117605
105536,117398
105405,117369
105383,117309
105273,117304
105074,117193
104923,117079
104897,117079
104947,117076
104902,117111
104798,117039
104737,116941
104699,116966
104801,117032
104797,117060
104767,117007
104678,116925
104698,116958
104816,117050
104861,117053
104867,117074
104821,117022
104884,117099
104970,117141
105095,117212
105088,117191
105012,117133
105168,117225
105305,117339
105326,117399
105387,117364
105316,117304
105455,117394
105577,117473
105620,117510
105633,117505
105559,117468
105670,117522
105794,117618
105839,117616
105831,117621
105752,117558
105859,117640
106007,117767
105993,117703
106000,117696
105988,117688
106103,117761
106198,117849
106265,117842
106257,117844
106213,117780
106355,117886
106402,117963
106413,117936
106390,117909
106313,117823
106387,117907
106401,117980
106382,117938
106290,117893
106180,117750
106218,117827
106194,117866
106137,117787
106061,117710
105909,117644
105998,117702
105937,117686
105835,117628
105798,117567
105636,117518
105708,117536
105803,117618
105707,117552
105647,117501
105604,117448
105652,117536
105707,117556
105695,117523
105675,117498
105618,117483
105693,117537
105785,117620
105778,117607
105764,117543
105765,117559
105877,117664
105993,117685
105950,117698
105930,117645
105962,117632
106057,117761
106194,117849
106150,117796
106170,117807
106192,117790
106294,117870
106383,117923
106350,117909
106386,117876
106365,117903
106494,117971
106583,118052
106571,118002
106605,117983
106567,117989
106697,118079
106770,118126
106776,118126
106721,118069
106731,118100
106833,118153
106926,118241
106897,118139
106818,118141
106855,118129
106957,118229
106996,118273
106984,118219
106932,118144
106954,118170
107090,118272
107118,118331
107043,118267
106995,118203
107054,118246
107096,118305
107146,118324
107156,118330
107059,118256
107080,118291
107181,118342
107228,118374
107168,118314
107124,118281
107147,118300
107237,118344
107248,118394
107229,118338
107124,118287
107164,118312
107281,118395
107329,118407
107232,118375
107157,118244
107209,118329
107317,118439
107305,118405
107256,118371
107223,118297
107275,118358
107362,118441
107361,118460
107312,118406
107237,118295
107322,118381
107413,118468
107369,118458
107355,118365
107293,118365
107332,118422
107415,118442
107375,118442
107302,118404
107175,118279
107142,118306
107054,118263
106905,118164
106669,118035
106394,117854
106219,117798
106047,117711
105868,117599
105660,117459
105453,117353
105410,117333
105433,117360
105309,117284
105213,117229
105109,117128
105099,117188
105195,117215
105161,117203
105088,117201
105038,117055
105136,117196
105256,117257
105202,117235
105191,117186
105154,117154
105257,117250
105388,117367
105332,117338
105338,117343
105368,117307
105502,117435
105642,117497
105654,117504
105672,117502
105704,117495
105826,117611
105942,117638
105977,117657
106020,117704
105992,117644
106157,117734
106235,117902
106257,117809
106269,117828
106259,117809
106360,117930
106476,117937
106494,117951
106456,117923
106485,117892
106576,118005
106715,118065
106686,118036
106628,118020
106674,117978
106785,118142
106865,118133
106876,118134
106822,118113
106796,118096
106888,118147
107004,118229
106897,118178
106828,118113
106781,118065
106934,118152
106897,118159
106842,118134
106772,118043
106665,118059
106725,118084
106760,118091
106650,118046
106591,117935
106557,117936
106627,117980
106617,118020
106524,117955
106479,117917
106486,117868
106511,117951
106598,117996
106524,117966
106411,117849
106411,117888
106572,117947
106571,118019
106527,117940
106500,117920
106528,117955
106649,117978
106680,118054
106671,118016
106617,117934
106697,118005
106762,118102
106844,118117
106814,118087
106719,118066
106836,118074
106902,118157
106981,118193
106958,118164
106944,118100
106951,118142
107042,118266
107084,118250
107110,118217
107046,118173
107105,118234
107224,118340
107196,118309
107224,118318
107168,118223
107236,118294
107333,118386
107319,118395
107304,118377
107261,118274
107298,118351
107382,118415
107420,118442
107383,118385
107312,118329
107405,118409
107524,118474
107536,118458
107460,118439
107371,118393
107478,118459
107555,118499
107538,118493
107545,118486
107453,118396
107539,118472
107562,118561
107547,118501
107578,118463
107485,118373
107551,118476
107624,118577
107597,118533
107568,118459
107496,118422
107597,118479
107680,118552
107653,118538
107561,118517
107501,118423
107576,118517
107711,118595
107653,118525
107582,118523
107548,118446
107617,118537
107714,118586
107656,118581
107619,118475
107557,118492
107679,118524
107723,118559
107698,118553
107704,118549
107599,118455
107707,118569
107705,118601
107683,118544
107635,118496
107517,118437
107513,118452
107427,118435
107306,118308
107105,118220
106868,118048
106782,118031
106617,117970
106331,117775
106108,117678
105933,117514
105907,117566
105867,117558
105751,117474
105581,117404
105553,117343
105561,117383
105599,117415
105569,117386
105469,117329
105416,117307
105588,117370
105645,117458
105575,117371
105589,117395
105565,117348
105682,117486
105775,117512
105758,117492
105746,117465
105750,117507
105906,117615
105995,117684
106023,117652
105962,117605
106067,117646
106171,117758
106257,117812
106280,117782
106242,117750
106284,117777
106445,117884
106503,117926
106479,117904
106421,117849
106457,117890
106608,117980
106672,118014
106627,117996
106594,117938
106656,117999
106799,118082
106826,118099
106844,118123
106797,118049
106806,118096
106992,118216
107024,118199
107012,118190
106981,118131
107020,118169
107117,118274
107133,118278
107076,118212
107017,118154
107019,118182
107080,118238
107008,118226
106973,118159
106881,118075
106824,118084
106863,118117
106852,118140
106754,118031
106609,117923
106657,117970
106684,117982
106643,118006
106536,117929
106440,117832
106476,117862
106546,117927
106521,117928
106433,117895
106389,117814
106456,117878
106544,117959
106533,117941
106505,117913
106439,117874
106554,117943
106659,118004
106602,117973
106634,117989
106608,117912
106703,118002
106786,118072
106765,118051
106808,118047
106737,117980
106833,118083
106950,118187
106940,118145
106947,118132
106885,118073
107022,118201
107102,118256
107111,118236
107110,118224
107040,118148
107119,118245
107242,118331
107212,118288
107203,118274
107134,118229
107268,118311
107361,118360
107339,118341
107318,118320
107242,118286
107358,118374
107446,118429
107412,118385
107432,118372
107341,118341
107455,118415
107506,118501
107496,118450
107470,118404
107425,118368
107543,118467
107621,118513
107557,118474
107564,118454
107511,118381
107586,118499
107712,118582
107593,118506
107591,118482
107552,118424
107650,118505
107744,118579
107680,118529
107622,118479
107577,118461
107700,118543
107714,118570
107700,118559
107650,118501
107615,118471
107711,118564
107813,118602
107694,118538
107690,118495
107644,118514
107776,118597
107790,118608
107733,118566
107670,118475
107670,118505
107742,118582
107765,118580
107650,118515
107581,118417
107459,118395
107477,118422
107350,118347
107126,118206
106823,117988
106625,117907
106519,117861
106254,117772
106047,117596
105777,117447
105676,117387
105652,117396
105596,117386
105456,117296
105306,117200
105310,117172
105302,117240
105390,117269
105271,117208
105188,117131
105187,117134
105325,117263
105320,117243
105291,117210
105199,117148
105269,117212
105362,117303
105388,117286
105363,117263
105340,117256
105413,117277
105503,117387
105539,117377
105580,117412
105541,117338
105613,117412
105786,117527
105831,117552
105791,117527
105788,117487
105888,117576
105994,117649
106020,117685
106058,117657
105984,117594
106104,117695
106242,117761
106259,117782
106245,117743
106178,117704
106324,117826
106411,117868
106462,117873
106479,117911
106452,117826
106581,117926
106657,118036
106714,118036
106689,118034
106698,117943
106737,118060
106856,118106
106868,118110
106807,118064
106721,117956
106773,118054
106804,118121
106770,118047
106698,117999
106571,117891
106571,117966
106641,117961
106542,117896
106445,117862
106292,117754
106373,117787
106386,117846
106280,117773
106207,117704
106081,117646
106189,117738
106240,117707
106185,117724
106131,117683
106034,117639
106130,117663
106167,117781
106132,117713
106158,117681
106100,117652
106239,117776
106296,117811
106280,117772
106214,117731
106248,117705
106349,117869
106458,117874
106434,117863
106427,117867
106412,117825
106553,117897
106662,118031
106610,117962
106612,117943
106634,117923
106726,118029
106867,118087
106845,118087
106781,118008
106746,118025
106935,118133
106958,118133
106982,118139
106948,118118
106916,118130
107032,118198
107137,118249
107105,118201
107077,118131
107029,118192
107164,118225
107236,118331
107182,118273
107201,118217
107205,118225
107249,118355
107366,118380
107314,118322
107274,118259
107339,118273
107383,118408
107461,118404
107433,118388
107370,118290
107392,118325
107471,118423
107504,118471
107441,118391
107404,118334
107387,118352
107499,118412
107562,118435
107475,118421
107377,118343
107419,118378
107475,118422
107528,118473
107500,118393
107418,118362
107428,118408
107467,118415
107542,118463
107451,118400
107418,118361
107433,118393
107481,118420
107499,118449
107490,118411
107419,118303
107447,118379
107477,118433
107469,118431
107374,118325
107239,118216
107211,118222
107086,118180
106908,118082
106678,117950
106326,117761
106166,117668
106003,117602
105820,117506
105614,117362
105438,117241
105379,117240
105369,117238
105309,117192
105184,117145
105057,117036
105082,117077
105168,117134
105121,117115
105054,117051
105016,117050
105082,117077
105132,117134
105170,117134
105093,117074
105064,117058
105143,117128
105282,117231
105268,117189
105264,117170
105217,117158
105366,117281
105434,117307
105481,117332
105553,117325
105471,117278
105648,117428
105750,117487
105808,117475
105810,117487
105822,117504
105948,117604
106082,117634
106091,117663
106160,117658
106084,117665
106228,117737
106401,117832
106410,117801
106367,117820
106368,117762
106559,117882
106614,117984
106659,117969
106666,117944
106661,117924
106797,118058
106864,118092
106906,118071
106858,118064
106851,118031
106981,118126
107031,118208
106993,118146
106972,118082
106907,118036
106991,118138
107037,118138
106971,118093
106829,118043
106756,117962
106865,118024
106880,118072
106743,118033
106673,117914
106604,117877
106665,117974
106685,117959
106573,117922
106526,117885
106445,117847
106572,117870
106610,117963
106554,117898
106456,117817
106455,117844
106601,117893
106592,117947
106545,117926
106521,117837
106544,117866
106681,117995
106647,117991
106648,117939
106656,117925
106661,117914
106780,118019
106829,118037
106802,118026
106705,117972
106774,117982
106895,118091
106919,118121
106951,118078
106839,118054
106908,118053
107031,118132
107075,118169
107059,118181
107010,118118
107058,118175
107163,118275
107197,118225
107189,118250
107189,118180
107219,118237
107364,118337
107350,118316
107299,118284
107292,118234
107344,118308
107442,118402
107389,118364
107403,118309
107389,118305
107420,118347
107488,118438
107495,118393
107460,118387
107419,118285
107457,118392
107589,118438
107585,118419
107496,118418
107437,118306
107501,118381
107607,118455
107600,118468
107514,118409
107485,118360
107562,118406
107637,118473
107623,118450
107574,118459
107467,118344
107576,118423
107628,118476
107621,118474
107589,118449
107534,118379
107595,118442
107695,118509
107640,118478
107599,118391
107550,118377
107639,118457
107674,118535
107643,118457
107618,118477
107571,118372
107610,118459
107727,118537
107636,118489
107543,118421
107463,118344
107464,118364
107421,118370
107244,118218
107067,118142
106824,117987
106721,117986
106582,117875
106384,117777
106129,117609
105868,117474
105902,117511
105821,117482
105742,117407
105619,117321
105491,117267
105555,117313
105546,117346
105499,117273
105417,117268
105366,117184
105508,117269
105542,117336
105500,117309
105462,117217
105435,117227
105533,117320
105640,117387
105606,117378
105552,117306
105569,117293
105729,117404
105792,117464
105782,117461
105740,117413
105767,117404
105914,117544
106018,117595
106006,117583
105972,117545
105976,117548
106152,117676
106205,117727
106212,117697
106207,117689
106211,117687
106340,117789
106444,117859
106437,117808
106413,117775
106455,117835
106603,117923
106642,117956
106692,117964
106704,117932
106727,117935
106871,118054
106935,118110
106926,118080
106901,118017
106950,118088
107050,118165
107062,118172
107036,118103
106919,118083
106920,118059
107070,118153
107036,118149
106934,118086
106836,117964
106826,118035
106880,118063
106850,118030
106772,117984
106668,117898
106590,117901
106669,117959
106630,117919
106601,117902
106457,117780
106435,117814
106534,117920
106527,117893
106465,117817
106426,117780
106429,117809
106534,117922
106518,117873
106556,117833
106455,117803
106551,117876
106677,117953
106634,117907
106617,117922
106590,117857
106678,117925
106754,118004
106776,117984
106785,117998
106686,117902
106831,118000
106905,118084
106866,118057
106885,118065
106811,117975
106918,118071
107020,118177
106980,118118
107043,118095
106909,118038
107052,118145
107120,118179
107109,118170
107119,118176
107051,118106
107137,118185
107231,118237
107187,118194
107244,118212
107119,118145
107224,118255
107327,118305
107302,118283
107265,118223
107196,118185
107336,118305
107363,118353
107373,118326
107315,118262
107272,118243
107425,118317
107454,118378
107411,118321
107373,118334
107323,118285
107447,118340
107535,118395
107483,118368
107419,118305
107357,118279
107509,118391
107518,118442
107495,118366
107463,118328
107415,118309
107523,118403
107570,118432
107529,118417
107460,118310
107405,118281
107531,118419
107597,118477
107552,118435
107495,118333
107461,118330
107603,118444
107602,118451
107565,118432
107542,118377
107512,118325
107595,118459
107595,118458
107552,118375
107461,118353
107319,118276
107375,118274
107282,118267
107046,118125
106880,118014
106595,117879
106599,117899
106419,117781
106191,117642
106006,117473
105841,117432
105832,117466
105798,117424
105631,117367
105572,117261
105485,117253
105532,117279
105508,117317
105489,117265
105379,117183
105376,117164
105505,117297
105497,117301
105475,117221
105423,117205
105402,117213
105544,117314
105550,117352
105525,117312
105492,117247
105524,117293
105642,117350
105666,117389
105710,117419
105623,117306
105705,117358
105823,117513
105860,117504
105872,117481
105828,117487
105882,117523
106013,117602
106053,117624
106066,117573
106071,117561
106114,117632
106192,117716
106217,117722
106260,117675
106212,117663
106289,117728
106373,117809
106430,117804
106471,117806
106397,117783
106456,117854
106650,117903
106628,117916
106622,117892
106572,117854
106578,117904
106713,117974
106719,117948
106660,117898
106570,117849
106579,117924
106691,117937
106600,117907
106544,117850
106421,117757
106467,117826
106531,117879
106418,117799
106315,117750
106223,117607
106215,117706
106292,117740
106234,117675
106131,117662
106017,117519
106123,117584
106145,117680
106085,117586
106075,117597
105961,117481
106093,117576
106098,117669
106093,117594
106077,117584
106004,117503
106128,117599
106163,117682
106175,117646
106128,117649
106062,117583
106211,117660
106315,117779
106274,117720
106307,117704
106264,117676
106372,117771
106482,117856
106460,117800
106476,117804
106432,117816
106544,117855
106621,117904
106624,117904
106597,117856
106558,117834
106747,117972
106784,117997
106752,117963
106751,117963
106718,117904
106880,118011
106904,118076
106921,118050
106896,118032
106882,118009
106993,118063
107059,118172
107080,118122
107017,118059
107001,118080
107124,118167
107179,118194
107159,118198
107088,118120
107110,118129
107235,118229
107323,118269
107241,118238
107204,118156
107178,118176
107268,118269
107351,118312
107281,118248
107275,118228
107225,118209
107391,118282
107383,118325
107362,118310
107326,118192
107329,118261
107415,118337
107442,118383
107431,118309
107326,118249
107369,118225
107444,118361
107515,118382
107431,118332
107339,118254
107357,118253
107487,118320
107435,118320
107280,118224
107139,118089
106976,118042
106875,118001
106662,117892
106421,117715
106083,117553
105871,117463
105824,117428
105655,117346
105497,117261
105316,117096
105297,117086
105296,117176
105241,117094
105191,117049
105081,116988
105027,116999
105145,117070
105163,117082
105107,117032
105049,116947
105071,116968
105150,117099
105143,117092
105123,117021
105077,116975
105137,117021
105251,117145
105320,117192
105297,117112
105247,117081
105331,117190
105452,117254
105504,117295
105507,117257
105490,117211
105572,117342
105706,117382
105783,117435
105752,117390
105697,117344
105857,117504
105950,117530
105957,117533
105935,117530
105938,117468
106025,117527
106171,117689
106124,117625
106200,117652
106116,117585
106275,117676
106345,117776
106396,117749
106411,117734
106362,117713
106479,117777
106612,117921
106536,117870
106538,117873
106467,117727
106592,117867
106631,117872
106622,117882
106535,117805
106411,117730
106498,117821
106509,117807
106426,117775
106317,117691
106190,117614
106222,117647
106271,117681
106141,117585
106050,117551
105958,117462
106024,117524
105990,117586
105955,117469
105909,117468
105783,117414
105893,117449
105895,117558
105924,117475
105865,117458
105823,117397
105893,117507
106002,117549
105930,117508
105912,117469
105885,117461
106001,117524
106088,117611
106055,117571
105993,117524
106005,117533
106149,117622
106250,117693
106159,117637
106129,117620
106151,117608
106272,117688
106356,117753
106327,117707
106331,117696
106312,117697
106398,117777
106510,117855
106508,117796
106464,117740
106471,117792
106593,117857
106651,117938
106628,117873
106597,117820
106620,117846
106753,117959
106810,118000
106777,117945
106753,117870
106730,117933
106901,117987
106968,118072
106925,118036
106826,117953
106857,117955
107021,118072
107010,118113
107030,118086
106915,118015
106972,118019
107120,118134
107174,118161
107122,118130
107046,118086
107053,118093
107179,118180
107237,118201
107160,118154
107127,118109
107123,118159
107240,118194
107294,118211
107202,118190
107146,118116
107199,118151
107313,118252
107272,118226
107286,118181
107169,118140
107237,118192
107336,118258
107340,118223
107281,118233
107212,118114
107233,118171
107295,118240
107214,118199
107096,118100
106885,117926
106787,117942
106672,117832
106479,117764
106165,117559
105827,117384
105760,117361
105647,117323
105526,117223
105388,117129
105155,117025
105145,117044
105165,117022
105137,116987
105043,116988
104935,116834
105001,116914
104983,116983
104982,116924
104965,116910
104892,116811
104943,116915
105006,116994
104994,116934
105008,116969
104932,116879
105037,116948
105133,117062
105151,117014
105093,117023
105032,116949
105196,117083
105285,117131
105319,117163
105272,117134
105236,117090
105426,117171
105513,117283
105479,117261
105504,117265
105436,117217
105594,117271
105732,117402
105687,117392
105661,117300
105686,117320
105751,117437
105857,117483
105887,117472
105858,117458
105856,117412
105995,117537
106114,117603
106117,117560
106105,117587
106117,117543
106225,117649
106317,117698
106250,117696
106251,117628
106227,117594
106303,117681
106358,117722
106257,117661
106162,117628
106096,117558
106197,117600
106196,117635
106046,117567
105975,117478
105869,117439
105948,117503
105952,117497
105836,117401
105772,117370
105682,117291
105770,117347
105783,117409
105715,117382
105668,117266
105624,117281
105708,117350
105733,117424
105668,117338
105661,117288
105656,117297
105725,117385
105745,117463
105771,117371
105715,117366
105730,117352
105804,117427
105935,117481
105861,117476
105845,117399
105859,117440
106022,117561
106062,117581
106043,117500
105955,117505
106041,117524
106178,117666
106191,117626
106207,117614
106137,117597
106204,117637
106351,117716
106358,117756
106344,117664
106314,117670
106398,117717
106472,117807
106529,117803
106534,117776
106469,117715
106543,117786
106619,117876
106689,117907
106609,117872
106563,117804
106606,117850
106735,117949
106771,117940
106761,117867
106676,117814
106754,117903
106874,117988
106917,118027
106867,117969
106822,117900
106873,117980
106945,118013
106967,118022
106960,118048
106844,117952
106994,118031
107053,118089
107035,118079
107030,118019
106938,117991
107012,118035
107116,118128
107070,118102
107067,118027
106965,117988
107089,118089
107146,118152
107136,118133
107083,118056
106991,118034
107139,118093
107214,118180
107160,118128
107105,118052
107007,118015
107091,118078
107205,118159
107122,118102
106992,118049
106827,117921
106798,117912
106726,117881
106492,117723
106196,117583
105889,117376
105784,117359
105690,117293
105488,117195
105339,117061
105142,116989
105131,117008
105158,117015
105043,116934
104966,116907
104837,116837
104947,116855
104967,116931
104944,116860
104872,116841
104792,116795
104891,116854
104960,116955
104929,116909
104909,116834
104854,116835
104977,116957
105071,116998
105038,116945
105019,116921
105035,116915
105167,117001
105283,117101
105232,117113
105228,117043
105231,117053
105428,117185
105500,117205
105487,117214
105482,117220
105483,117194
105654,117291
105726,117361
105754,117351
105773,117338
105772,117375
105929,117442
106017,117521
105992,117480
106002,117421
106049,117465
106171,117575
106281,117670
106265,117637
106198,117587
106289,117607
106367,117731
106453,117749
106405,117692
106322,117655
106365,117664
106432,117709
106456,117745
106389,117708
106270,117575
106248,117604
106296,117638
106243,117643
106115,117524
106014,117456
105938,117453
105985,117455
105945,117469
105839,117410
105735,117308
105689,117302
105768,117333
105755,117325
105670,117291
105579,117187
105634,117247
105665,117359
105650,117278
105622,117277
105603,117188
105657,117277
105690,117328
105746,117325
105698,117313
105631,117254
105700,117306
105845,117378
105903,117461
105823,117377
105803,117353
105856,117397
106003,117460
106047,117520
105986,117506
105947,117403
106059,117489
106178,117583
106199,117610
106185,117564
106126,117514
106201,117592
106353,117709
106331,117672
106332,117654
106291,117591
106447,117694
106520,117809
106556,117773
106563,117783
106465,117667
106616,117787
106663,117880
106670,117829
106686,117813
106645,117780
106733,117882
106792,117921
106807,117903
106808,117929
106720,117805
106866,117922
106920,118021
106928,117976
106867,117966
106806,117868
106897,117945
106960,118006
106967,117973
106900,117943
106866,117905
106938,117992
107047,118041
106978,118003
106972,117952
106906,117931
106974,118017
107064,118038
107018,118002
107009,117983
106916,117914
107066,118048
107065,118087
107068,118015
107077,117983
106969,117973
107054,118046
107165,118109
107124,118037
107053,118028
106971,117952
107083,118060
107135,118077
106961,117964
106839,117847
106733,117773
106646,117763
106460,117732
106212,117545
105924,117375
105654,117211
105589,117192
105476,117131
105297,117039
105130,116921
104947,116821
104992,116863
104981,116855
104874,116831
104796,116720
104696,116717
104766,116756
104786,116797
104720,116728
104663,116675
104646,116663
104710,116734
104754,116771
104705,116722
104668,116671
104695,116664
104776,116792
104802,116804
104774,116813
104726,116729
104810,116764
104933,116855
105024,116932
104976,116923
104931,116831
105004,116851
105134,117007
105179,117019
105175,117030
105127,116977
105188,117031
105350,117098
105455,117155
105384,117158
105330,117094
105428,117104
105528,117253
105597,117251
105606,117236
105561,117223
105622,117224
105755,117378
105802,117352
105791,117305
105801,117313
105801,117368
105923,117474
105958,117468
105921,117394
105892,117338
105876,117412
105979,117466
105949,117435
105857,117366
