
0
0
0
0
0
0
0
0
0
0
0
0
0
0
0
0
0
0
0
0
0
0
0
0
0
0
0
0
0
0
0
0
0
0
0
0
0
0
0
0
0
0
0
0
0
0
0
0
0
0
0
0
0
0
0
0
0
0
0
0
0
0
0
0
0
0
0
0
0
0
0
0
0
0
0
0
0
0
0
0
0
0
0
0
0
0
0
0
0
0
0
0
0
0
0
0
0
0
0
0
0
0
0
0
0
0
0
0
0
0
0
0
0
0
0
0
0
0
0
0
0
0
0
0
0
0
0
0
0
0
0
0
0
0
0
0
0
0
0
0
0
0
0
0
0
0
0
0
0
0
0
0
0
0
0
0
0
0
0
0
0
0
0
0
0
0
0
0
0
0
0
0
0
0
0
0
0
0
0
0
0
0
0
0
0
0
0
0
0
0
0
0
0
0
0
0
0
0
0
0
0
0
0
0
0
0
0
0
0
0
0
0
0
0
0
0
0
0
0
0
0
0
0
0
0
0
0
0
0
0
0
0
0
0
0
0
0
0
0
0
0
0
0
0
0
0
0
0
0
0
0
0
0
0
0
0
0
0
0
0
0
0
0
0
0
0
0
0
0
0
0
0
0
0
0
0
0
0
0
0
0
0
0
0
0
0
0
0
0
0
0
0
0
0
0
0
0
0
0
0
0
0
0
0
0
0
0
0
0
0
0
0
0
0
0
0
0
0
0
0
0
0
0
0
0
0
0
0
0
0
0
0
0
0
0
0
0
0
0
0
0
0
0
0
0
0
0
0
0
0
0
0
0
0
0
0
0
0
0
0
0
0
0
0
0
0
0
0
0
0
0
0
0
0
0
0
0
0
0
0
0
0
0
0
0
0
0
0
0
0
0
0
0
0
0
0
0
0
0
0
0
0
0
0
0
0
0
0
0
0
0
0
0
0
0
0
0
0
0
0
0
0
0
0
0
0
0
0
0
0
0
0
0
0
0
0
0
0
0
0
0
0
0
0
0
0
0
0
0
0
0
0
0
0
0
0
0
0
0
0
0
0
0
0
0
0
0
0
0
0
0
0
0
0
0
0
0
0
0
0
0
0
0
0
0
0
0
0
0
0
0
0
0
0
0
0
0
0
0
0
0
0
0
0
0
0
0
0
0
0
0
0
0
0
0
0
0
0
0
0
0
0
0
0
0
0
0
0
0
0
0
0
0
0
0
0
0
0
0
0
0
0
0
0
0
0
0
0
0
0
0
0
0
0
0
0
0
0
0
0
0
0
0
0
0
0
0
0
0
0
0
0
0
0
0
0
0
0
0
0
0
0
0
0
0
0
0
0
0
0
0
0
0
0
0
0
0
0
0
0
0
0
0
0
0
0
0
0
0
0
0
0
0
0
0
0
0
0
0
0
0
0
0
0
0
0
0
0
0
0
0
0
0
0
0
0
0
0
0
0
0
0
0
0
0
0
0
0
0
0
0
0
0
0
0
0
0
0
0
0
0
0
0
0
0
0
0
0
0
0
0
0
0
0
0
0
0
0
0
0
0
0
0
0
0
0
0
0
0
0
0
0
0
0
0
0
0
0
0
0
0
0
0
0
0
0
0
0
0
0
0
0
0
0
0
0
0
0
0
0
0
0
0
0
0
0
0
0
0
0
0
0
0
0
0
0
0
0
0
0
0
0
0
0
0
0
0
0
0
0
0
0
0
0
0
0
0
0
0
0
0
0
0
0
0
0
0
0
0
0
0
0
0
0
0
0
0
0
0
0
0
0
0
0
0
0
0
0
0
0
0
0
0
0
0
0
0
0
0
0
0
0
0
0
0
0
0
0
0
0
0
0
0
0
0
0
0
0
0
0
0
0
0
0
0
0
0
0
0
0
0
0
0
0
0
0
0
0
0
0
0
0
0
0
0
0
0
0
0
0
0
0
0
0
0
0
0
0
0
0
0
0
0
0
0
0
0
0
0
0
0
0
0
0
0
0
0
0
0
0
0
0
0
0
0
0
0
0
0
0
0
0
0
0
0
0
0
0
0
0
0
0
0
0
0
0
0
0
0
0
0
0
0
0
0
0
0
0
0
0
0
0
0
0
0
0
0
0
0
0
0
0
0
0
0
0
0
0
0
0
0
0
0
0
0
0
0
0
0
0
0
0
0
0
0
0
0
0
0
0
0
0
0
0
0
0
0
0
0
0
0
0
0
0
0
0
0
0
0
0
0
0
0
0
0
0
0
0
0
0
0
0
0
0
0
0
0
0
0
0
0
0
0
0
0
0
0
0
0
0
0
0
0
0
0
0
0
0
0
0
0
0
0
0
0
0
0
0
0
0
0
0
0
0
0
0
0
0
0
0
0
0
0
0
0
0
0
0
0
0
0
0
0
0
0
0
0
0
0
0
0
0
0
0
0
0
0
0
0
0
0
0
0
0
0
0
0
0
0
0
0
0
0
0
0
0
0
0
0
0
0
0
0
0
0
0
0
0
0
0
0
0
0
0
0
0
0
0
0
0
0
0
0
0
0
0
0
0
0
0
0
0
0
0
0
0
0
0
0
0
0
0
0
0
0
0
0
0
0
0
0
0
0
0
0
0
0
0
0
0
0
0
0
0
0
0
0
0
0
0
0
0
0
0
0
0
0
0
0
0
0
0
0
0
0
0
0
0
0
0
0
0
0
0
0
0
0
0
0
0
0
0
0
0
0
0
0
0
0
0
0
0
0
0
0
0
0
0
0
0
0
0
0
0
0
0
0
0
0
0
0
0
0
0
0
0
0
0
0
0
0
0
0
0
0
0
0
0
0
0
0
0
0
0
0
0
0
0
0
0
0
0
0
0
0
0
0
0
0
0
0
0
0
0
0
0
0
0
0
0
0
0
0
0
0
0
0
0
0
0
0
0
0
0
0
0
0
0
0
0
0
0
0
0
0
0
0
0
0
0
0
0
0
0
0
0
0
0
0
0
0
0
0
0
0
0
0
0
0
0
0
0
0
0
0
0
0
0
0
0
0
0
0
0
0
0
0
0
0
0
0
0
0
0
0
0
0
0
0
0
0
0
0
0
0
0
0
0
0
0
0
0
0
0
0
0
0
0
0
0
0
0
0
0
0
0
0
0
0
0
0
0
0
0
0
0
0
0
0
0
0
0
0
0
0
0
0
0
0
0
0
0
0
0
0
0
0
0
0
0
0
0
0
0
0
0
0
0
0
0
0
0
0
0
0
0
0
0
0
0
0
0
0
0
0
0
0
0
0
0
0
0
0
0
0
0
0
0
0
0
0
0
0
0
0
0
0
0
0
0
0
0
0
0
0
0
0
0
0
0
0
0
0
0
0
0
0
0
0
0
0
0
0
0
0
0
0
0
0
0
0
0
0
0
0
0
0
0
0
0
0
0
0
0
0
0
0
0
0
0
0
0
0
0
0
0
0
0
0
0
0
0
0
0
0
0
0
0
0
0
0
0
0
0
0
0
0
0
0
0
0
0
0
0
0
0
0
0
0
0
0
0
0
0
0
0
0
0
0
0
0
0
0
0
0
0
0
0
0
0
0
0
0
0
0
0
0
0
0
0
0
0
0
0
0
0
0
0
0
0
0
0
0
0
0
0
0
0
0
0
0
0
0
0
0
0
0
0
0
0
0
0
0
0
0
0
0
0
0
0
0
0
0
0
0
0
0
0
0
0
0
0
0
0
0
0
0
0
0
0
0
0
0
0
0
0
0
0
0
0
0
0
0
0
0
0
0
0
0
0
0
0
0
0
0
0
0
0
0
0
0
0
0
0
0
0
0
0
0
0
0
0
0
0
0
0
0
0
0
0
0
0
0
0
0
0
0
0
0
0
0
0
0
0
0
0
0
0
0
0
0
0
0
0
0
0
0
0
0
0
0
0
0
0
0
0
0
0
0
0
0
0
0
0
0
0
0
0
0
0
0
0
0
0
0
0
0
0
0
0
0
0
0
0
0
0
0
0
0
0
0
0
0
0
0
0
0
0
0
0
0
0
0
0
0
0
0
0
0
0
0
0
0
0
0
0
0
0
0
0
0
0
0
0
0
0
0
0
0
0
0
0
0
0
0
0
0
0
0
0
0
0
0
0
0
0
0
0
0
0
0
0
0
0
0
0
0
0
0
0
0
0
0
0
0
0
0
0
0
0
0
0
0
0
0
0
0
0
0
0
0
0
0
0
0
0
0
0
0
0
0
0
0
0
0
0
0
0
0
0
0
0
0
0
0
0
0
0
0
0
0
0
0
0
0
0
0
0
0
0
0
0
0
0
0
0
0
0
0
0
0
0
0
0
0
0
0
0
0
0
0
0
0
0
0
0
0
0
0
0
0
0
0
0
0
0
0
0
0
0
0
0
0
0
0
0
0
0
0
0
0
0
0
0
0
0
0
0
0
0
0
0
0
0
0
0
0
0
0
0
0
0
0
0
0
0
0
0
0
0
0
0
0
0
0
0
0
0
0
0
0
0
0
0
0
0
0
0
0
0
0
0
0
0
0
0
0
0
0
0
0
0
0
0
0
0
0
0
0
0
0
0
0
0
0
0
0
0
0
0
0
0
0
0
0
0
0
0
0
0
0
0
0
0
0
0
0
0
0
0
0
0
0
0
0
0
0
0
0
0
0
0
0
0
0
0
0
0
0
0
0
0
0
0
0
0
0
0
0
0
0
0
0
0
0
0
0
0
0
0
0
0
0
0
0
0
0
0
0
0
0
0
0
0
0
0
0
0
0
0
0
0
0
0
0
0
0
0
0
0
0
0
0
0
0
0
0
0
0
0
0
0
0
0
0
0
0
0
0
0
0
0
0
0
0
0
0
0
0
0
0
0
0
0
0
0
0
0
0
0
0
0
0
0
0
0
0
0
0
0
0
0
0
0
0
0
0
0
0
0
0
0
0
0
0
0
0
0
0
0
0
0
0
0
0
0
0
-1
0
-1
0
-1
0
-1
0
-2
1
-13
-20
-20
-24
-26
-30
-35
-39
-45
-49
-54
-59
-66
-71
-79
-83
-89
-95
-102
-106
-113
-119
-125
-130
-136
-143
-146
-153
-160
-166
-171
-178
-183
-189
-194
-200
-207
-211
-218
-225
-228
-233
-241
-245
-251
-256
-262
-269
-274
-282
-284
-291
-296
-302
-307
-313
-318
-323
-330
-335
-340
-345
-349
-356
-362
-366
-372
-376
-381
-388
-392
-400
-404
-408
-414
-418
-424
-429
-435
-439
-445
-451
-455
-461
-465
-470
-475
-481
-485
-491
-495
-500
-506
-511
-517
-520
-526
-531
-535
-542
-546
-549
-555
-560
-565
-569
-574
-580
-584
-589
-594
-598
-602
-608
-614
-617
-622
-626
-630
-636
-640
-644
-650
-653
-657
-661
-667
-672
-674
-681
-684
-689
-694
-699
-703
-707
-713
-716
-721
-725
-729
-733
-737
-740
-746
-751
-755
-759
-762
-769
-773
-776
-780
-784
-789
-793
-797
-800
-806
-809
-812
-818
-822
-826
-830
-833
-838
-842
-847
-851
-853
-859
-861
-865
-869
-873
-877
-881
-886
-887
-892
-896
-902
-905
-908
-912
-916
-920
-923
-927
-932
-935
-937
-942
-946
-950
-953
-959
-960
-964
-969
-973
-976
-979
-983
-986
-990
-992
-995
-1001
-1002
-1006
-1010
-1015
-1017
-1020
-1023
-1027
-1031
-1035
-1038
-1042
-1046
-1048
-1052
-1055
-1058
-1060
-1065
-1068
-1070
-1074
-1077
-1081
-1083
-1087
-1090
-1094
-1097
-1101
-1106
-1106
-1111
-1113
-1117
-1121
-1124
-1126
-1129
-1133
-1136
-1138
-1141
-1146
-1147
-1150
-1154
-1158
-1160
-1163
-1167
-1169
-1173
-1175
-1177
-1182
-1185
-1186
-1190
-1193
-1196
-1200
-1201
-1207
-1209
-1211
-1214
-1218
-1219
-1224
-1224
-1229
-1230
-1233
-1235
-1239
-1243
-1245
-1246
-1251
-1252
-1255
-1257
-1260
-1263
-1266
-1269
-1271
-1275
-1278
-1280
-1283
-1285
-1288
-1289
-1292
-1296
-1299
-1300
-1304
-1307
-1309
-1311
-1314
-1317
-1317
-1322
-1324
-1326
-1329
-1331
-1333
-1336
-1339
-1341
-1343
-1346
-1349
-1350
-1352
-1357
-1356
-1360
-1362
-1365
-1368
-1371
-1372
-1373
-1377
-1380
-1381
-1382
-1386
-1387
-1388
-1392
-1393
-1397
-1399
-1400
-1402
-1405
-1408
-1409
-1412
-1416
-1416
-1418
-1421
-1424
-1425
-1427
-1429
-1431
-1434
-1435
-1438
-1439
-1443
-1444
-1448
-1449
-1452
-1453
-1455
-1456
-1458
-1461
-1464
-1464
-1466
-1468
-1470
-1474
-1476
-1477
-1478
-1480
-1482
-1484
-1487
-1489
-1491
-1492
-1494
-1496
-1498
-1499
-1501
-1502
-1505
-1508
-1509
-1510
-1512
-1516
-1516
-1518
-1520
-1522
-1523
-1525
-1527
-1529
-1529
-1531
-1533
-1535
-1538
-1539
-1540
-1542
-1543
-1545
-1547
-1549
-1550
-1552
-1555
-1556
-1555
-1560
-1561
-1562
-1564
-1565
-1566
-1569
-1570
-1572
-1573
-1574
-1576
-1579
-1581
-1581
-1584
-1586
-1585
-1586
-1590
-1590
-1593
-1592
-1595
-1599
-1599
-1600
-1601
-1602
-1605
-1604
-1607
-1608
-1611
-1612
-1612
-1615
-1616
-1617
-1619
-1620
-1621
-1622
-1624
-1625
-1626
-1629
-1630
-1630
-1632
-1633
-1636
-1637
-1638
-1638
-1640
-1640
-1644
-1643€
-1644
-1647
-1647
-1648
-1648
-1651
-1652
-1653
-1656
-1656
-1657
-1660
-1660
-1661
-1663
-1663
-1667
-1667
-1668
-1670
-1669
-1671
-1671
-1673
-1675
-1675
-1678
-1677
-1678
-1680
-1680
-1683
-1684
-1684
-1685
-1686
-1689
-1690
-1691
-1692
-1692
-1693
-1694
-1696
-1696
-1697
-1698
-1699
-1701
-1701
-1702
-1704
-1704
-1706
-1707
-1709
-1708
-1710
-1713
-1711
-1712
-1715
-1714
-1716
-1717
-1717
-1718
-1719
-1721
-1722
-1722
-1725
-1725
-1726
-1728
-1726
-1728
-1728
-1728
-1732
-1732
-1731
-1734
-1734
-1733
-1735
-1736
-1737
-1738
-1739
-1741
-1741
-1741
-1742
-1742
-1743
-1744
-1746
-1746
-1746
-1748
-1749
-1748
-1748
-1749
-1751
-1753
-1752
-1754
-1753
-1755
-1755
-1755
-1756
-1756
-1758
-1758
-1759
-1759
-1761
-1760
-1762
-1762
-1762
-1764
-1763
-1766
-1766
-1766
-1766
-1767
-1768
-1767
-1768
-1771
-1770
-1771
-1771
-1772
-1774
-1772
-1773
-1775
-1775
-1778
-1777
-1777
-1778
-1777
-1778
-1780
-1778
-1781
-1780
-1782
-1783
-1782
-1782
-1783
-1785
-1784
-1785
-1786
-1786
-1787
-1788
-1787
-1786
-1789
-1788
-1789
-1790
-1790
-1792
-1789
-1791
-1793
-1791
-1792
-1791
-1792
-1794
-1793
-1796
-1796
-1794
-1796
-1798
-1796
-1797
-1797
-1796€
-1797
-1799
-1798
-1799
-1799
-1799
-1799
-1799
-1801
-1802
-1802
-1800
-1802
-1804
-1803
-1804
-1805
-1802
-1804
-1805
-1804
-1805
-1805
-1806
-1807
-1807
-1807
-1807
-1806
-1808
-1809
-1808
-1808
-1808
-1810
-1810
-1809
-1810
-1810
-1809
-1810
-1811
-1810
-1811
-1811
-1813
-1813
-1811
-1812
-1811
-1813
-1813
-1815
-1816
-1814
-1814
-1814
-1815
-1814
-1815
-1817
-1815
-1817
-1816
-1816
-1817
-1815
-1816
-1816
-1817
-1816
-1816
-1817
-1818
-1818
-1817
-1819
-1819
-1817
-1817
-1818
-1819
-1817
-1817
-1820
-1817
-1818
-1819
-1820
-1819
-1819
-1820
-1820
-1820
-1821
-1818
-1819
-1821
-1821
-1821
-1821
-1821
-1820
-1821
-1819
-1821
-1822
-1820
-1820
-1822
-1819
-1820
-1821
-1821
-1821
-1821
-1820
-1821
-1821
-1821
-1821
-1821
-1820
-1820
-1821
-1820
-1820
-1821
-1821
-1819
-1820
-1820
-1820
-1820
-1819
-1820
-1820
-1819
-1819
-1820
-1819
-1820
-1821
-1820
-1820
-1820
-1820
-1821
-1820
-1819
-1819
-1818
-1820
-1820
-1818
-1818
-1819
-1819
-1819
-1818
-1819
-1818
-1817
-1819
-1820
-1817
-1816
-1818
-1817
-1819
-1817
-1818
-1818
-1817
-1818
-1818
-1816
-1816
-1817
-1816
-1817
-1817
-1816
-1815
-1814
-1816
-1815
-1816
-1815
-1814
-1815
-1814€
-1815
-1814
-1813
-1813
-1814
-1812
-1813
-1812
-1811
-1813
-1812
-1813
-1813
-1813
-1812
-1810
-1811
-1810
-1811
-1811
-1810
-1809
-1809
-1810
-1808
-1809
-1808
-1806
-1808
-1807
-1807
-1807
-1806
-1807
-1807
-1806
-1804
-1806
-1805
-1805
-1804
-1804
-1804
-1804
-1805
-1803
-1803
-1803
-1802
-1801
-1801
-1802
-1803
-1801
-1801
-1800
-1801
-1800
-1799
-1799
-1799
-1800
-1798
-1798
-1799
-1797
-1799
-1798
-1797
-1798
-1798
-1796
-1797
-1796
-1794
-1796
-1793
-1794
-1794
-1793
-1795
-1792
-1793
-1792
-1792
-1792
-1791
-1791
-1791
-1790
-1790
-1788
-1790
-1791
-1789
-1787
-1787
-1788
-1788
-1787
-1786
-1786
-1785
-1785
-1783
-1785
-1782
-1784
-1783
-1783
-1783
-1782
-1781
-1781
-1781
-1781
-1781
-1781
-1780
-1780
-1780
-1779
-1780
-1778
-1779
-1778
-1779
-1777
-1776
-1776
-1775
-1775
-1774
-1775
-1773
-1773
-1773
-1773
-1772
-1771
-1772
-1771
-1771
-1771
-1770
-1770
-1770
-1770
-1769
-1767
-1768
-1767
-1768
-1765
-1765
-1765
-1766
-1761
-1763
-1763
-1761
-1762
-1762
-1762
-1760
-1760
-1759
-1759
-1760
-1760
-1759
-1758
-1757
-1756
-1756
-1755
-1756
-1753
-1754
-1754
-1752
-1751
-1752
-1751
-1750
-1751
-1751
-1750
-1748
-1748
-1748
-1748€
-1746
-1745
-1746
-1747
-1744
-1745
-1743
-1744
-1744
-1744
-1742
-1741
-1742
-1740
-1740
-1741
-1739
-1738
-1738
-1737
-1737
-1737
-1736
-1734
-1733
-1733
-1733
-1732
-1731
-1731
-1731
-1730
-1729
-1730
-1728
-1727
-1729
-1727
-1726
-1726
-1726
-1724
-1725
-1723
-1723
-1722
-1722
-1721
-1722
-1719
-1720
-1719
-1718
-1718
-1717
-1718
-1716
-1718
-1715
-1714
-1714
-1712
-1713
-1712
-1712
-1710
-1710
-1710
-1709
-1708
-1707
-1708
-1707
-1705
-1705
-1705
-1704
-1706
-1705
-1702
-1702
-1704
-1702
-1700
-1700
-1700
-1698
-1696
-1698
-1698
-1696
-1696
-1696
-1695
-1696
-1693
-1693
-1692
-1692
-1691
-1692
-1690
-1690
-1689
-1689
-1687
-1687
-1687
-1684
-1685
-1685
-1683
-1682
-1682
-1681
-1681
-1681
-1680
-1680
-1678
-1676
-1677
-1677
-1677
-1675
-1675
-1674
-1673
-1674
-1673
-1671
-1672
-1671
-1669
-1668
-1668
-1669
-1667
-1665
-1667
-1663
-1666
-1663
-1663
-1663
-1662
-1662
-1661
-1659
-1659
-1660
-1659
-1658
-1657
-1657
-1655
-1654
-1653
-1653
-1653
-1650
-1650
-1651
-1650
-1649
-1649
-1646
-1645
-1646
-1646
-1645
-1644
-1642
-1642
-1641
-1641
-1640
-1641
-1640
-1638
-1637
-1637
-1636
-1637
-1635
-1635
-1634
-1634
-1633
-1633
-1631
-1632€
-1630
-1630
-1630
-1629
-1628
-1628
-1626
-1625
-1625
-1626
-1624
-1622
-1623
-1623
-1621
-1620
-1619
-1618
-1617
-1618
-1617
-1616
-1614
-1614
-1613
-1613
-1610
-1611
-1611
-1609
-1608
-1609
-1608
-1606
-1608
-1605
-1605
-1605
-1603
-1602
-1603
-1602
-1600
-1600
-1598
-1599
-1597
-1599
-1595
-1595
-1593
-1594
-1593
-1594
-1592
-1591
-1592
-1590
-1590
-1589
-1588
-1588
-1587
-1585
-1585
-1584
-1584
-1583
-1582
-1582
-1581
-1580
-1579
-1579
-1577
-1578
-1575
-1576
-1575
-1574
-1573
-1572
-1573
-1571
-1571
-1569
-1570
-1569
-1568
-1566
-1568
-1565
-1565
-1563
-1564
-1564
-1561
-1561
-1560
-1559
-1560
-1559
-1557
-1559
-1557
-1556
-1554
-1554
-1551
-1552
-1553
-1551
-1549
-1550
-1548
-1548
-1548
-1546
-1547
-1545
-1543
-1544
-1542
-1541
-1542
-1540
-1538
-1539
-1539
-1536
-1537
-1535
-1535
-1533
-1532
-1533
-1532
-1530
-1529
-1529
-1528
-1528
-1528
-1528
-1527
-1525
-1525
-1524
-1523
-1522
-1522
-1520
-1518
-1520
-1519
-1520
-1517
-1516
-1516
-1516
-1515
-1515
-1513
-1511
-1510
-1511
-1509
-1510
-1508
-1509
-1506
-1505
-1506
-1504
-1502
-1504
-1502
-1501
-1500
-1499
-1499
-1500
-1498
-1497
-1495
-1495
-1494
-1493
-1493
-1492
-1490
-1490€
-1492
-1491
-1487
-1486
-1487
-1484
-1486
-1483
-1482
-1482
-1482
-1479
-1482
-1477
-1479
-1480
-1477
-1475
-1476
-1475
-1474
-1472
-1473
-1472
-1471
-1469
-1471
-1468
-1467
-1468
-1467
-1467
-1467
-1464
-1464
-1464
-1462
-1462
-1460
-1461
-1458
-1459
-1457
-1457
-1455
-1458
-1453
-1454
-1451
-1452
-1452
-1451
-1451
-1448
-1446
-1447
-1446
-1447
-1447
-1446
-1443
-1443
-1441
-1441
-1439
-1440
-1439
-1439
-1436
-1439
-1437
-1434
-1435
-1436
-1433
-1432
-1429
-1430
-1429
-1429
-1428
-1427
-1425
-1425
-1425
-1424
-1423
-1423
-1422
-1420
-1422
-1420
-1420
-1419
-1416
-1418
-1416
-1415
-1414
-1414
-1413
-1412
-1412
-1412
-1409
-1410
-1408
-1407
-1407
-1407
-1405
-1404
-1403
-1402
-1402
-1403
-1400
-1400
-1399
-1398
-1396
-1397
-1395
-1395
-1393
-1394
-1392
-1391
-1389
-1389
-1389
-1388
-1387
-1386
-1385
-1385
-1384
-1384
-1382
-1382
-1381
-1379
-1379
-1379
-1377
-1377
-1376
-1374
-1375
-1373
-1373
-1370
-1371
-1372
-1370
-1369
-1368
-1367
-1366
-1364
-1367
-1364
-1364
-1362
-1362
-1362
-1360
-1359
-1359
-1357
-1357
-1355
-1357
-1354
-1356
-1354
-1354
-1351
-1352
-1349
-1350
-1348
-1349
-1347
-1346
-1344
-1345
-1346
-1344
-1344
-1341
-1341€
-1340
-1340
-1340
-1338
-1337
-1336
-1335
-1334
-1335
-1335
-1334
-1331
-1330
-1332
-1329
-1328
-1327
-1326
-1326
-1325
-1324
-1323
-1324
-1323
-1322
-1320
-1320
-1320
-1320
-1317
-1317
-1316
-1315
-1315
-1315
-1313
-1311
-1311
-1310
-1311
-1311
-1307
-1310
-1305
-1306
-1305
-1305
-1304
-1303
-1304
-1301
-1302
-1300
-1299
-1299
-1298
-1298
-1295
-1295
-1296
-1293
-1294
-1292
-1291
-1290
-1290
-1288
-1289
-1288
-1288
-1287
-1286
-1284
-1284
-1283
-1282
-1281
-1280
-1280
-1279
-1278
-1275
-1277
-1276
-1275
-1273
-1273
-1272
-1271
-1272
-1270
-1269
-1268
-1269
-1268
-1267
-1267
-1265
-1264
-1265
-1262
-1262
-1262
-1260
-1260
-1259
-1257
-1257
-1255
-1255
-1254
-1254
-1254
-1253
-1251
-1252
-1251
-1249
-1249
-1251
-1247
-1246
-1245
-1246
-1245
-1244
-1243
-1242
-1241
-1240
-1239
-1239
-1238
-1239
-1237
-1235
-1237
-1235
-1234
-1231
-1232
-1231
-1231
-1231
-1231
-1229
-1228
-1228
-1228
-1227
-1226
-1225
-1224
-1222
-1223
-1222
-1219
-1220
-1218
-1218
-1218
-1217
-1216
-1215
-1215
-1213
-1212
-1212
-1212
-1211
-1210
-1210
-1211
-1208
-1208
-1206
-1206
-1205
-1204
-1204
-1201
-1202
-1201
-1199
-1201
-1198
-1199
-1198
-1196
-1196
-1195
-1194€
-1194
-1194
-1192
-1192
-1190
-1189
-1190
-1188
-1187
-1187
-1186
-1185
-1184
-1183
-1182
-1181
-1180
-1179
-1178
-1177
-1178
-1177
-1175
-1174
-1173
-1174
-1171
-1173
-1171
-1169
-1170
-1169
-1167
-1168
-1167
-1168
-1165
-1165
-1165
-1162
-1162
-1161
-1161
-1160
-1159
-1160
-1157
-1159
-1156
-1156
-1156
-1153
-1153
-1154
-1153
-1150
-1152
-1150
-1150
-1150
-1149
-1148
-1147
-1146
-1144
-1144
-1143
-1144
-1143
-1142
-1141
-1140
-1139
-1138
-1137
-1137
-1135
-1135
-1135
-1131
-1132
-1132
-1132
-1129
-1130
-1129
-1128
-1127
-1128
-1126
-1123
-1124
-1123
-1123
-1122
-1120
-1121
-1119
-1117
-1117
-1117
-1117
-1117
-1116
-1115
-1114
-1114
-1113
-1111
-1113
-1110
-1111
-1109
-1107
-1109
-1106
-1105
-1106
-1103
-1105
-1104
-1104
-1104
-1102
-1101
-1101
-1101
-1099
-1097
-1095
-1097
-1096
-1097
-1095
-1094
-1093
-1093
-1090
-1091
-1091
-1090
-1090
-1087
-1087
-1088
-1085
-1085
-1084
-1084
-1085
-1082
-1083
-1081
-1080
-1078
-1078
-1078
-1077
-1075
-1075
-1075
-1075
-1073
-1073
-1073
-1071
-1069
-1070
-1069
-1069
-1068
-1068
-1069
-1067
-1065
-1065
-1064
-1063
-1062
-1061
-1061
-1061
-1061
-1058
-1059
-1059
-1057
-1056
-1056
-1055
-1053
-1054€
-1051
-1051
-1051
-1050
-1049
-1049
-1049
-1048
-1047
-1046
-1046
-1046
-1043
-1042
-1041
-1043
-1041
-1040
-1040
-1039
-1038
-1036
-1038
-1036
-1036
-1034
-1035
-1033
-1033
-1032
-1032
-1028
-1030
-1029
-1027
-1027
-1027
-1026
-1026
-1026
-1026
-1024
-1025
-1024
-1023
-1023
-1021
-1020
-1020
-1021
-1019
-1019
-1016
-1015
-1015
-1014
-1014
-1012
-1012
-1011
-1009
-1009
-1009
-1009
-1006
-1009
-1006
-1005
-1006
-1004
-1004
-1003
-1001
-1002
-1002
-1000
-1000
-999
-998
-998
-997
-996
-995
-994
-996
-994
-993
-991
-990
-990
-990
-990
-989
-988
-987
-987
-985
-984
-985
-983
-982
-982
-982
-979
-981
-980
-979
-979
-977
-978
-977
-975
-976
-976
-974
-974
-971
-972
-971
-968
-969
-968
-969
-967
-966
-965
-965
-964
-963
-963
-964
-963
-963
-960
-960
-960
-959
-958
-958
-956
-956
-956
-956
-954
-953
-955
-954
-953
-950
-952
-950
-949
-949
-947
-946
-946
-945
-946
-944
-943
-945
-942
-942
-942
-940
-939
-939
-939
-940
-937
-938
-935
-935
-936
-932
-933
-931
-932
-930
-931
-931
-930
-929
-928
-928
-928
-925
-926
-925
-924
-925
-924
-922
-922
-920
-920
-919
-919
-918
-916
-917
-917
-915
-914
-914
-912
-913
-912
-911
-911
-909
-910
-910
-907
-906
-906
-906
-905
-905
-905
-903
-903
-902
-901
-900
-902
-899
-900
-899
-899
-899
-897
-897
-895
-897
-895
-895
-893
-894
-892
-891
-891
-889
-890
-888
-887
-887
-886
-885
-885
-885
-885
-884
-883
-882
-882
-881
-881
-880
-880
-878
-878
-878
-878
-877
-875
-876
-875
-875
-873
-873
-873
-872
-872
-870
-870
-868
-867
-868
-868
-867
-865
-866
-864
-864
-863
-864
-862
-862
-860
-860
-859
-859
-859
-857
-858
-856
-857
-856
-857
-855
-855
-853
-852
-852
-849
-852
-851
-849
-849
-848
-848
-846
-844
-847
-845
-844
-844
-843
-843
-843
-841
-839
-841
-839
-838
-839
-837
-836
-836
-836
-836
-834
-835
-833
-832
-831
-831
-830
-830
-829
-830
-828
-828
-828
-828
-827
-826
-825
-825
-825
-823
-821
-821
-820
-820
-822
-821
-819
-818
-817
-817
-818
-816
-815
-814
-814
-814
-813
-812
-812
-812
-811
-810
-808
-809
-808
-806
-808
-806
-805
-805
-805
-802
-804
-802
-803
-801
-800
-801
-800
-799
-799
-798
-797
-797
-796
-795
-795
-795
-793
-794
-793
-793
-793
-791
-790
-790
-789
-791
-787
-788
-788
-787
-787
-787
-787
-785
-783
-783
-784
-782
-783
-783
-779
-779
-778
-778
-778
-778
-776
-777
-775
-774
-776
-775
-772
-773
-772
-771
-772
-770
-769
-770
-769
-769
-770
-768
-766
-767
-766
-765
-765
-765
-763
-763
-762
-763
-762
-760
-761
-760
-759
-759
-757
-756
-757
-755
-756
-754
-755
-753
-754
-753
-752
-753
-751
-751
-749
-750
-750
-748
-748
-746
-746
-746
-747
-745
-744
-744
-742
-741
-743
-740
-741
-742
-739
-739
-739
-739
-738
-736
-735
-737
-735
-735
-734
-735
-734
-732
-732
-732
-730
-732
-730
-731
-732
-729
-729
-728
-727
-726
-726
-725
-723
-724
-725
-724
-723
-722
-721
-721
-722
-721
-720
-720
-717
-719
-718
-718
-716
-716
-715
-714
-714
-713
-711
-712
-712
-711
-711
-711
-709
-709
-709
-708
-708
-706
-705
-705
-707
-704
-704
-704
-703
-702
-702
-701
-701
-701
-699
-699
-699
-698
-698
-697
-697
-697
-696
-695
-695
-695
-693
-693
-693
-693
-692
-691
-690
-691
-691
-690
-689
-686
-687
-685
-687
-685
-686
-685
-683
-685
-684
-682
-682
-682
-682
-683
-682
-679
-680
-679
-679
-677
-677
-677
-674
-677
-676
-675
-674
-675
-672
-673
-672
-671
-672
-672
-671
-667
-669
-669
-668
-666
-668
-667
-665
-666
-666
-664
-664
-664
-665
-663
-661
-663
-661
-659
-660
-659
-659
-659
-658
-657
-658
-657
-655
-655
-653
-654
-654
-653
-653
-653
-653
-650
-651
-650
-649
-648
-648
-648
-649
-646
-648
-646
-644
-646
-644
-643
-644
-643
-643
-641
-641
-641
-641
-640
-638
-640
-638
-635
-639
-635
-635
-637
-634
-632
-635
-635
-633
-631
-632
-631
-630
-630
-630
-630
-629
-629
-629
-628
-627
-628
-627
-626
-626
-626
-626
-625
-625
-624
-623
-623
-623
-622
-621
-621
-619
-620
-618
-619
-618
-617
-619
-618
-617
-618
-616
-615
-616
-615
-613
-613
-614
-613
-613
-613
-613
-610
-610
-610
-610
-608
-609
-608
-608
-606
-607
-606
-607
-603
-605
-605
-604
-605
-603
-602
-601
-601
-602
-600
-600
-599
-599
-599
-599
-598
-598
-597
-596
-595
-595
-595
-593
-594
-593
-594
-593
-592
-589
-590
-590
-592
-589
-590
-590
-588
-588
-587
-587
-586
-587
-587
-585
-583
-585
-584
-582
-584
-585
-582
-580
-580
-580
-580
-578
-579
-580
-578
-578
-579
-576
-577
-577
-575
-574
-574
-574
-575
-574
-573
-572
-572
-572
-573
-572
-571
-571
-571
-570
-569
-569
-570
-568
-568
-567
-567
-568
-565
-566
-567
-566
-564
-565
-564
-563
-564
-563
-563
-561
-562
-560
-561
-559
-558
-560
-558
-557
-556
-557
-558
-555
-557
-557
-555
-552
-555
-554
-551
-553
-553
-551
-549
-550
-550
-549
-547
-549
-549
-546
-547
-547
-546
-546
-546
-546
-544
-544
-544
-543
-543
-544
-542
-542
-542
-542
-541
-541
-540
-539
-538
-540
-540
-537
-537
-539
-536
-536
-535
-535
-533
-534
-533
-533
-533
-532
-532
-531
-532
-532
-529
-531
-529
-529
-528
-527
-527
-527
-527
-527
-527
-525
-525
-525
-525
-522
-524
-523
-523
-523
-521
-525
-520
-521
-521
-520
-519
-519
-520
-518
-518
-516
-516
-518
-517
-514
-515
-515
-514
-515
-516
-514
-514
-514
-512
-513
-513
-510
-509
-509
-510
-510
-509
-506
-509
-507
-507
-508
-506
-507
-506
-505
-505
-505
-503
-503
-503
-502
-502
-502
-501
-502
-501
-501
-500
-500
-498
-499
-499
-499
-498
-498
-497
-497
-495
-495
-495
-496
-496
-494
-495
-494
-495
-494
-493
-492
-493
-491
-492
-490
-491
-491
-489
-491
-490
-489
-489
-488
-488
-488
-488
-487
-487
-486
-486
-487
-485
-485
-484
-484
-484
-483
-483
-482
-481
-482
-482
-480
-481
-481
-479
-479
-480
-479
-480
-480
-479
-478
-478
-475
-477
-475
-475
-476
-474
-474
-473
-472
-475
-473
-471
-471
-473
-471
-471
-471
-471
-469
-467
-468
-467
-468
-467
-466
-467
-467
-467
-465
-466
-465
-465
-463
-461
-464
-463
-463
-462
-462
-460
-461
-461
-461
-459
-461
-458
-457
-459
-458
-457
-456
-458
-458
-456
-457
-455
-456
-455
-455
-454
-454
-452
-452
-452
-451
-452
-451
-452
-451
-451
-451
-450
-449
-450
-448
-449
-449
-448
-450
-446
-448
-447
-445
-446
-446
-446
-444
-443
-442
-443
-443
-443
-443
-440
-442
-440
-440
-440
-440
-439
-440
-438
-438
-436
-436
-437
-436
-438
-437
-438
-436
-436
-436
-435
-434
-435
-434
-433
-433
-432
-435
-433
-430
-432
-430
-431
-431
-430
-429
-430
-429
-428
-428
-429
-428
-428
-427
-427
-426
-425
-425
-424
-424
-425
-423
-424
-423
-422
-421
-422
-421
-420
-420
-421
-419
-420
-420
-421
-420
-418
-420
-419
-418
-417
-417
-415
-417
-418
-416
-415
-417
-415
-414
-413
-413
-413
-413
-413
-413
-411
-412
-412
-412
-412
-409
-411
-411
-409
-411
-410
-408
-408
-408
-408
-407
-408
-408
-405
-405
-406
-404
-403
-404
-406
-405
-403
-402
-402
-402
-400
-400
-402
-401
-400
-400
-400
-399
-399
-399
-400
-398
-399
-399
-397
-398
-397
-397
-395
-395
-396
-394
-396
-394
-394
-394
-393
-394
-393
-392
-392
-390
-391
-391
-390
-390
-392
-391
-390
-389
-389
-387
-387
-388
-386
-387
-387
-385
-384
-384
-387
-384
-384
-385
-383
-384
-383
-383
-382
-382
-384
-382
-382
-383
-379
-381
-380
-380
-378
-379
-379
-378
-378
-378
-378
-378
-376
-376
-376
-376
-375
-375
-374
-375
-374
-374
-374
-372
-372
-374
-373
-372
-372
-372
-371
-374
-373
-370
-370
-370
-368
-368
-369
-370
-368
-368
-368
-367
-367
-365
-366
-368
-368
-366
-365
-365
-364
-363
-364
-363
-364
-362
-362
-361
-360
-361
-362
-360
-360
-359
-359
-359
-358
-359
-360
-359
-358
-359
-358
-358
-357
-357
-356
-356
-357
-355
-355
-354
-353
-355
-354
-352
-354
-354
-352
-355
-352
-352
-353
-351
-351
-351
-350
-350
-349
-350
-349
-350
-349
-349
-347
-348
-348
-347
-347
-347
-346
-346
-345
-344
-347
-346
-345
-345
-344
-344
-345
-343
-344
-343
-342
-343
-342
-342
-341
-340
-340
-340
-340
-340
-339
-338
-339
-340
-339
-338
-337
-336
-336
-338
-338
-339
-335
-337
-337
-336
-336
-335
-336
-334
-334
-335
-333
-333
-333
-334
-333
-333
-334
-332
-331
-331
-332
-330
-331
-330
-330
-330
-330
-331
-331
-329
-329
-326
-329
-326
-328
-327
-327
-326
-328
-327
-326
-327
-326
-325
-325
-323
-324
-324
-323
-323
-322
-322
-324
-322
-324
-323
-321
-320
-321
-320
-320
-320
-322
-321
-319
-320
-318
-319
-318
-318
-317
-317
-317
-316
-319
-318
-316
-316
-315
-316
-314
-316
-315
-315
-313
-313
-315
-313
-313
-311
-313
-312
-312
-311
-312
-312
-312
-312
-310
-311
-310
-309
-310
-310
-310
-309
-308
-307
-307
-308
-309
-309
-307
-308
-307
-306
-307
-308
-305
-304
-306
-305
-304
-304
-305
-303
-302
-303
-303
-302
-302
-301
-303
-301
-300
-302
-303
-301
-299
-300
-299
-299
-299
-299
-299
-299
-299
-299
-298
-298
-298
-298
-295
-296
-296
-296
-296
-296
-295
-296
-295
-296
-295
-295
-295
-292
-293
-292
-292
-294
-293
-292
-292
-292
-292
-292
-291
-291
-291
-289
-290
-291
-289
-289
-287
-289
-288
-288
-289
-286
-287
-286
-286
-285
-285
-285
-287
-285
-285
-285
-285
-285
-283
-283
-283
-283
-284
-284
-284
-281
-283
-282
-282
-281
-281
-281
-281
-280
-281
-280
-280
-280
-281
-279
-279
-278
-277
-279
-278
-279
-279
-279
-278
-278
-277
-277
-275
-276
-276
-276
-276
-274
-274
-276
-275
-274
-273
-274
-274
-273
-272
-274
-272
-272
-272
-273
-272
-271
-272
-271
-271
-271
-271
-272
-270
-269
-269
-268
-270
-270
-269
-268
-267
-268
-268
-268
-267
-268
-267
-265
-265
-267
-266
-265
-266
-266
-264
-264
-266
-264
-262
-262
-263
-263
-263
-264
-262
-263
-263
-263
-263
-263
-263
-261
-262
-261
-261
-260
-259
-260
-259
-259
-260
-260
-259
-260
-259
-259
-259
-257
-260
-257
-257
-256
-259
-257
-256
-258
-257
-258
-257
-256
-256
-256
-256
-255
-254
-254
-254
-253
-254
-252
-253
-253
-252
-251
-252
-251
-253
-252
-253
-252
-251
-250
-248
-251
-250
-249
-250
-250
-250
-248
-248
-250
-249
-248
-248
-247
-248
-248
-247
-247
-247
-245
-247
-243
-246
-245
-244
-244
-246
-245
-242
-244
-244
-243
-242
-243
-244
-244
-243
-241
-242
-242
-241
-244
-241
-243
-241
-240
-241
-241
-241
-240
-240
-239
-239
-240
-239
-240
-240
-239
-238
-239
-238
-239
-239
-237
-238
-237
-238
-237
-236
-237
-236
-236
-235
-234
-234
-235
-236
-234
-235
-234
-235
-233
-232
-235
-232
-236
-229
-237
-222
-244
-213
-262
-178
-452
-1419
-1355
-1369
-1335
-1342
-1323
-1322
-1307
-1305
-1309
-1326
-1346
-1371
-1381
-1400
-1421
-1435
-1447
-1446
-1456
-1459
-1468
-1469
-1466
-1453
-1441
-1437
-1428
-1422
-1396
-1358
-1336
-1309
-1282
-1260
-1230
-1214
-1198
-1174
-1150
-1131
-1119
-1124
-1119
-1106
-1084
-1082
-1096
-1106
-1120
-1118
-1109
-1123
-1152
-1180
-1200
-1209
-1217
-1232
-1246
-1259
-1265
-1258
-1256
-1252
-1256
-1263
-1269
-1271
-1278
-1273
-1265
-1268
-1272
-1272
-1268
-1256
-1245
-1240
-1237
-1233
-1219
-1202
-1198
-1191
-1183
-1162
-1142
-1129
-1123
-1116
-1101
-1083
-1064
-1048
-1039
-1037
-1036
-1030
-1029
-1030
-1037
-1053
-1064
-1075
-1100
-1112
-1116
-1120
-1124
-1139
-1151
-1153
-1140
-1125
-1132
-1140
-1151
-1156
-1144
-1145
-1168
-1200
-1232
-1261
-1288
-1321
-1353
-1367
-1373
-1378
-1383
-1390
-1398
-1407
-1418
-1427
-1416
-1388
-1342
-1290
-1236
-1167
-1085
-989
-894
-814
-752
-704
-664
-622
-596
-588
-592
-594
-600
-620
-649
-692
-736
-781
-819
-863
-917
-972
-1027
-1070
-1104
-1140
-1169
-1189
-1208
-1214
-1223
-1233
-1227
-1216
-1210
-1207
-1223
-1237
-1242
-1232
-1231
-1246
-1261
-1276
-1272
-1245
-1224
-1209
-1193
-1176
-1148
-1120
-1107
-1106
-1110
-1122
-1129
-1145
-1171
-1206
-1243
-1275
-1293
-1303
-1305
-1297
-1288
-1269
-1238
-1200
-1142
-1075
-1011
-943
-882
-817
-736
-652
-563
-474
-386
-308
-250
-211
-193
-175
-157
-144
-144
-152
-165
-175
-169
-163
-156
-142
-137
-126
-115
-119
-122
-110
-94
-88
-107
-139
-154
-161
-182
-241
-315
-389
-450
-498
-557
-637
-714
-785
-831
-865
-980
-1106
-1163
-1223
-1265
-1270
-1239
-1200
-1156
-1120
-1072
-1016
-963
-915
-888
-869
-858
-873
-883
-877
-868
-884
-921
-959
-972
-981
-987
-998
-1003
-1002
-1005
-1011
-1025
-1034
-1034
-1026
-1023
-1027
-1030
-1026
-1007
-958
-978
-1038
-986
-863
-777
-783
-790
-740
-662
-590
-552
-529
-500
-451
-401
-370
-353
-410
-438
-360
-279
-282
-345
-389
-393
-375
-384
-405
-408
-413
-404
-393
-377
-361
-352
-351
-343
-331
-313
-294
-292
-301
-318
-339
-344
-354
-370
-394
-419
-440
-449
-463
-481
-498
-508
-511
-522
-529
-544
-549
-551
-542
-545
-547
-557
-564
-565
-565
-569
-571
-575
-571
-559
-557
-549
-528
-504
-484
-472
-473
-464
-444
-418
-418
-427
-442
-450
-437
-426
-440
-457
-474
-487
-482
-480
-487
-489
-495
-488
-474
-469
-462
-459
-466
-471
-473
-472
-466
-470
-482
-497
-508
-514
-516
-527
-543
-558
-573
-576
-585
-602
-610
-609
-596
-592
-585
-587
-581
-566
-545
-524
-511
-505
-502
-490
-478
-471
-464
-455
-457
-444
-446
-447
-440
-431
-426
-433
-453
-468
-471
-455
-455
-470
-477
-488
-477
-451
-443
-448
-451
-456
-440
-422
-421
-422
-421
-417
-404
-395
-386
-384
-385
-387
-387
-397
-401
-403
-410
-411
-412
-415
-416
-417
-426
-438
-454
-461
-470
-492
-510
-531
-541
-558
-575
-600
-617
-624
-615
-600
-589
-571
-555
-538
-510
-487
-464
-439
-421
-399
-380
-372
-356
-337
-325
-317
-327
-332
-320
-298
-286
-291
-292
-289
-277
-251
-238
-239
-241
-245
-243
-230
-236
-247
-253
-271
-275
-286
-297
-310
-327
-346
-358
-366
-375
-386
-411
-431
-429
-415
-398
-379
-364
-352
-337
-323
-302
-284
-274
-264
-248
-232
-228
-233
-249
-259
-270
-267
-266
-272
-285
-302
-310
-316
-324
-332
-341
-354
-347
-345
-342
-329
-313
-295
-284
-284
-276
-259
-234
-229
-235
-242
-248
-244
-239
-245
-262
-276
-284
-282
-277
-286
-289
-283
-271
-243
-223
-207
-200
-188
-182
-170
-162
-155
-148
-160
-177
-194
-211
-218
-227
-246
-268
-285
-294
-290
-295
-301
-304
-294
-289
-289
-294
-305
-312
-315
-309
-314
-322
-336
-350
-354
-358
-362
-363
-364
-371
-366
-370
-362
-341
-323
-302
-295
-296
-286
-269
-236
-226
-231
-232
-229
-211
-187
-188
-199
-205
-205
-193
-181
-187
-190
-189
-181
-162
-149
-139
-137
-136
-141
-137
-141
-140
-145
-165
-178
-197
-202
-206
-211
-227
-231
-238
-235
-222
-225
-227
-219
-192
-167
-141
-125
-114
-100
-82
-59
-51
-46
-51
-57
-58
-65
-79
-89
-106
-123
-138
-158
-168
-166
-160
-157
-160
-171
-167
-147
-131
-135
-146
-156
-156
-142
-137
-150
-170
-179
-183
-170
-166
-176
-172
-175
-159
-140
-126
-115
-109
-107
-93
-79
-68
-55
-59
-69
-78
-86
-91
-101
-123
-146
-168
-188
-186
-189
-188
-187
-172
-150
-133
-114
-106
-92
-74
-51
-42
-42
-47
-57
-63
-68
-78
-85
-90
-97
-94
-103
-107
-96
-86
-85
-110
-129
-123
-94
-59
-55
-60
-66
-67
-49
-25
-22
-29
-38
-42
-38
-36
-52
-68
-83
-92
-91
-94
-97
-105
-115
-117
-111
-110
-99
-99
-108
-115
-122
-121
-115
-116
-124
-129
-137
-138
-137
-140
-132
-115
-81
-56
-39
-37
-34
-29
-18
-1
3
4
-2
-7
-5
-13
-16
-17
-27
-28
-36
-50
-55
-54
-48
-55
-75
-93
-99
-88
-86
-102
-118
-134
-131
-113
-112
-126
-143
-152
-152
-139
-139
-143
-140
-144
-131
-120
-114
-110
-109
-117
-114
-111
-107
-105
-120
-137
-148
-153
-149
-145
-149
-154
-157
-152
-136
-124
-117
-103
-84
-66
-54
-45
-48
-46
-43
-35
-39
-49
-60
-73
-82
-90
-99
-103
-106
-107
-104
-112
-106
-94
-79
-68
-68
-75
-74
-59
-41
-42
-51
-62
-71
-57
-45
-54
-71
-86
-90
-81
-73
-78
-77
-79
-68
-50
-35
-23
-17
-15
-15
-4
-1
2
-5
-27
-43
-63
-69
-74
-84
-93
-101
-102
-89
-68
-55
-38
-14
18
42
64
75
86
98
113
124
123
119
106
95
88
77
70
64
55
54
44
31
32
37
38
31
11
-6
-8
1
-8
-27
-48
-73
-82
-75
-87
-106
-127
-136
-129
-114
-108
-102
-93
-82
-62
-45
-28
-15
-6
2
20
32
53
73
75
72
67
64
66
67
62
55
53
81
145
207
246
261
285
326
393
454
458
371
209
15
-204
-446
-710
-972
-1188
-1345
-1438
-1469
-1457
-1389
-1277
-1138
-967
-783
-613
-470
-352
-258
-171
-82
-13
25
56
75
102
140
170
186
207
232
273
326
377
426
486
546
615
685
750
806
844
865
876
868
845
804
734
651
565
477
395
315
238
160
94
46
18
0
-12
-8
13
42
70
100
120
145
169
198
214
217
203
188
169
144
113
82
49
13
-13
-51
-81
-97
-110
-121
-139
-159
-170
-161
-145
-142
-149
-151
-153
-134
-110
-103
-108
-112
-105
-87
-67
-64
-57
-49
-39
-14
5
24
37
48
52
66
77
91
94
81
66
53
46
41
32
13
-11
-32
-42
-46
-57
-63
-70
-58
-54
-49
-50
-47
-37
-23
-4
7
16
19
23
34
39
39
46
46
53
55
52
57
74
87
93
91
85
90
110
119
109
96
78
71
82
79
58
31
9
-2
-3
-12
-23
-32
-41
-29
-18
-5
4
9
8
14
23
29
36
29
19
12
9
16
21
20
16
17
25
44
56
65
75
92
110
117
122
119
120
126
137
143
144
139
136
136
138
135
134
125
122
119
102
98
97
103
104
92
82
75
93
105
89
79
60
46
55
56
36
17
-7
-17
-17
-23
-40
-49
-65
-69
-67
-71
-75
-84
-100
-106
-107
-107
-106
-117
-137
-153
-164
-166
-166
-166
-170
-173
-165
-146
-126
-113
-90
-61
-29
-6
17
27
39
49
64
67
58
45
24
10
-2
-17
-25
-35
-45
-44
-51
-54
-39
-21
-4
6
4
12
34
65
74
70
66
60
74
93
85
71
53
48
59
70
68
72
76
89
109
123
136
142
145
148
162
166
178
179
165
150
134
128
123
113
98
81
68
64
63
60
55
53
66
73
77
77
79
83
98
118
127
134
134
141
154
162
171
178
182
190
200
199
210
225
243
252
248
241
244
260
272
260
247
230
224
235
233
213
190
172
165
170
166
155
155
152
165
179
192
199
206
209
218
227
234
244
236
220
208
197
192
189
179
161
146
138
144
143
139
135
141
152
157
165
161
162
162
175
182
185
181
173
166
162
153
146
141
129
127
115
111
119
133
145
150
144
144
159
179
183
174
160
144
147
156
144
121
104
96
100
107
100
96
97
101
113
120
123
120
115
107
108
100
98
92
69
48
29
15
12
0
-14
-29
-39
-45
-37
-35
-35
-31
-14
3
13
17
14
19
27
35
36
28
18
7
3
-1
-4
-2
-3
3
14
15
25
41
58
75
79
74
82
94
110
104
84
65
50
51
48
25
-6
-32
-49
-53
-52
-64
-73
-73
-64
-42
-26
-10
-1
8
13
30
39
52
57
50
42
39
38
44
45
43
38
34
48
63
76
85
97
123
144
162
174
183
194
210
224
227
229
220
211
208
205
195
192
190
188
185
179
182
190
205
214
212
204
207
215
233
223
206
188
172
175
171
146
113
90
77
76
72
64
61
61
74
94
108
120
125
130
131
140
140
147
146
127
114
100
95
94
85
73
57
48
55
60
62
63
62
73
79
83
78
68
67
68
81
90
95
96
103
115
131
145
160
174
183
198
201
211
225
238
250
245
235
230
235
253
243
226
206
188
188
182
164
134
114
103
102
100
86
74
66
71
89
100
112
122
129
140
159
169
183
182
169
157
143
134
132
125
115
106
101
108
117
122
124
124
139
150
155
151
141
133
131
137
133
127
113
101
100
98
98
99
96
98
101
97
100
113
128
135
129
115
112
118
138
127
106
92
79
88
90
74
48
31
25
31
35
22
14
12
17
33
38
46
46
54
59
71
76
83
90
79
70
63
64
72
75
72
65
60
67
78
78
82
78
92
102
102
98
85
78
77
81
75
65
44
27
18
10
4
4
3
0
10
14
24
45
72
98
110
115
126
140
173
182
176
172
168
181
194
194
180
176
178
190
207
206
207
212
225
243
250
255
253
249
239
236
230
220
207
182
155
125
104
91
78
60
37
17
10
18
18
21
20
31
50
57
59
55
53
58
68
71
69
59
47
40
41
37
37
33
27
25
21
21
29
45
57
57
49
52
55
73
76
58
41
20
18
21
13
-13
-31
-40
-33
-19
-17
-13
-4
10
37
58
83
96
108
116
132
140
146
147
127
107
84
69
57
48
35
23
15
15
26
27
39
54
75
94
102
107
101
102
103
106
104
96
78
63
56
53
52
52
47
49
53
50
61
82
101
114
116
109
113
128
143
132
116
101
88
95
110
103
87
77
80
105
132
138
156
169
195
231
258
278
290
293
304
321
327
339
333
320
308
293
289
284
271
251
232
216
216
217
214
210
212
222
224
223
212
205
201
203
195
181
167
147
126
108
94
87
78
70
69
61
56
63
79
89
92
88
92
108
134
144
140
138
139
157
180
182
169
155
149
157
168
161
155
148
142
149
149
147
139
129
122
120
108
106
99
76
56
28
19
21
15
0
-12
-21
-13
0
9
19
31
56
75
91
98
104
114
131
147
159
168
168
167
172
169
167
165
150
141
134
119
115
119
122
125
113
109
109
131
142
131
119
102
100
109
105
83
56
33
20
22
11
-4
-11
-23
-14
-1
10
21
30
34
48
59
74
87
87
78
73
75
82
87
85
81
78
82
96
106
114
120
136
148
158
157
151
149
152
158
154
150
138
126
121
114
108
106
96
91
91
77
74
80
82
85
79
69
74
93
109
101
99
88
90
107
112
99
78
63
52
55
50
35
30
18
20
28
34
41
45
44
48
58
62
73
65
48
30
18
11
8
1
-14
-23
-26
-15
-6
5
11
30
52
67
79
79
83
85
92
88
75
53
32
14
-1
-15
-24
-35
-36
-29
-29
-16
6
30
54
72
88
110
147
183
193
201
200
204
229
241
232
220
205
199
208
209
201
200
198
207
218
225
225
221
211
205
200
188
177
149
111
75
46
24
2
-24
-53
-80
-93
-91
-90
-86
-81
-65
-42
-23
-4
5
23
42
70
91
106
116
123
136
146
152
163
164
169
176
173
177
189
201
208
203
192
190
200
207
187
171
144
122
127
126
105
83
64
57
69
76
72
83
82
98
120
138
156
170
173
183
194
203
218
213
200
186
178
178
173
165
149
130
119
119
107
97
85
83
81
75
67
47
43
38
42
38
35
24
10
7
9
10
15
11
20
31
30
44
68
88
101
105
108
121
147
166
154
149
133
127
142
144
126
108
94
91
105
110
109
116
118
134
156
170
182
186
180
179
173
185
209
221
214
200
185
183
180
166
149
131
129
140
140
144
150
170
186
206
217
222
239
258
278
290
295
286
279
276
266
256
249
229
222
212
197
195
199
197
196
188
188
194
219
230
220
219
209
214
241
238
231
220
205
205
214
207
195
179
165
161
153
140
125
99
74
60
46
39
23
-2
-24
-48
-62
-73
-92
-115
-140
-172
-188
-206
-233
-252
-262
-264
-270
-270
-280
-284
-278
-268
-257
-245
-234
-223
-205
-177
-146
-110
-77
-50
-26
-12
1
13
23
22
15
4
-5
-3
12
1
-7
-18
-29
-18
-10
-28
-60
-91
-122
-136
-155
-181
-194
-210
-209
-199
-182
-163
-142
-128
-101
-68
-31
8
33
52
72
100
133
160
173
182
183
183
196
194
190
187
189
197
200
200
191
187
185
187
186
177
159
139
125
113
92
82
63
57
51
38
39
44
54
64
72
89
125
177
222
253
289
322
357
407
429
432
426
403
382
364
328
294
248
208
174
160
171
182
174
144
136
144
168
169
147
110
72
44
20
-5
-37
-56
-68
-54
-41
-22
-1
21
50
65
77
67
60
50
41
17
-4
-35
-79
-110
-140
-171
-194
-229
-261
-276
-285
-272
-248
-219
-193
-175
-139
-94
-37
15
36
53
66
84
114
131
124
113
92
79
77
64
53
30
14
1
-10
-23
-35
-57
-73
-68
-66
-53
-45
-42
-45
-37
-22
-11
-13
-19
-33
-58
-55
-72
-87
-100
-119
-126
-128
-113
-100
-82
-62
-43
-14
8
-7
-5
-11
-15
-3
0
-14
-29
-18
11
36
56
88
123
152
174
199
241
283
294
292
293
298
327
327
307
284
248
223
206
177
157
127
100
90
85
75
70
55
47
58
69
83
90
91
93
101
120
142
152
157
158
163
183
194
204
212
225
239
247
258
261
269
277
285
286
288
278
264
260
247
231
219
200
200
202
197
207
226
244
259
264
270
281
303
304
281
258
230
213
207
184
147
112
68
44
30
11
0
-11
-17
-6
12
34
53
65
82
110
141
174
189
194
196
202
220
232
238
232
224
224
236
240
241
239
252
260
264
268
263
263
265
267
258
252
233
209
192
163
130
99
59
33
4
-25
-36
-43
-49
-57
-65
-65
-54
-26
-13
-18
-14
-17
-4
24
30
26
23
14
20
37
41
52
56
66
85
105
115
123
122
122
130
137
142
125
107
85
76
72
66
55
38
18
9
14
10
10
8
16
20
23
21
14
13
13
15
8
7
-6
-13
-13
-20
-22
-30
-38
-39
-47
-54
-53
-49
-51
-58
-73
-74
-68
-49
-54
-66
-80
-98
-93
-84
-96
-112
-129
-144
-138
-127
-124
-115
-112
-99
-76
-53
-37
-27
-26
-15
-3
17
25
19
8
-4
1
13
21
17
15
10
25
41
47
59
70
89
102
118
127
136
149
167
183
194
205
206
212
225
228
239
244
252
268
274
280
299
314
321
320
315
317
329
342
325
307
287
266
264
261
233
208
180
164
169
166
163
158
153
162
178
193
204
206
204
218
229
249
257
255
252
251
265
281
290
282
269
254
254
246
228
206
185
170
145
123
94
71
50
39
23
11
-3
-24
-30
-33
-44
-49
-64
-71
-72
-82
-86
-78
-77
-78
-86
-88
-77
-53
-42
-46
-49
-58
-54
-35
-30
-41
-55
-77
-86
-83
-91
-95
-103
-110
-103
-89
-80
-74
-79
-74
-61
-42
-25
-26
-34
-45
-41
-25
-14
-20
-35
-60
-72
-73
-87
-97
-109
-108
-109
-104
-102
-96
-85
-66
-49
-36
-20
-13
-4
8
16
19
20
15
18
19
18
32
41
48
48
53
69
98
123
121
119
109
107
125
131
120
105
82
63
63
50
43
35
20
20
32
39
53
66
92
151
226
323
406
482
547
621
696
759
798
812
812
807
812
796
776
748
721
689
659
621
581
543
508
474
429
379
321
266
219
168
122
74
36
7
-16
-32
-36
-42
-58
-77
-93
-104
-106
-115
-148
-170
-197
-220
-227
-234
-246
-257
-283
-307
-316
-332
-341
-353
-364
-369
-360
-342
-325
-325
-323
-314
-308
-303
-313
-327
-353
-381
-400
-418
-437
-460
-494
-516
-518
-515
-493
-461
-413
-365
-304
-246
-193
-132
-66
2
72
135
189
251
321
383
445
495
539
590
630
666
703
723
724
707
692
677
669
643
593
546
493
452
432
405
367
331
291
266
262
244
237
220
200
189
189
180
162
133
104
79
67
50
17
-27
-82
-115
-137
-165
-205
-253
-306
-335
-363
-395
-422
-448
-465
-489
-506
-528
-545
-553
-556
-558
-552
-548
-540
-511
-474
-431
-382
-338
-286
-230
-169
-99
-19
53
108
162
217
283
355
394
423
446
469
503
539
549
548
537
519
519
509
493
469
435
407
394
377
360
328
293
266
244
233
203
163
108
68
44
28
3
-21
-54
-69
-65
-70
-60
-51
-32
-14
12
31
49
69
92
110
126
133
130
137
146
151
151
145
141
138
138
145
157
165
163
154
157
165
189
186
171
155
140
145
153
152
139
122
100
98
99
96
85
63
47
45
41
42
28
10
5
10
30
39
41
32
31
50
70
80
84
77
77
92
91
99
101
107
106
112
111
105
105
106
100
95
89
71
59
55
49
47
38
34
33
33
38
53
59
53
42
37
43
63
63
51
39
30
42
64
74
70
60
49
54
69
78
83
74
70
85
98
111
110
95
92
93
108
108
93
65
45
44
44
37
23
-2
-21
-24
-32
-34
-40
-38
-43
-36
-39
-40
-37
-32
-30
-22
-20
-31
-28
-26
-25
-27
-33
-40
-41
-43
-36
-26
-23
-30
-41
-36
-31
-9
-11
-24
-32
-43
-33
-19
-12
-8
-5
-5
11
26
44
48
43
44
63
82
98
93
87
85
93
111
114
108
91
82
90
95
89
80
53
44
37
34
43
48
59
60
73
74
84
97
112
114
119
110
94
85
73
52
29
2
-22
-38
-52
-56
-56
-61
-77
-79
-67
-41
-8
-2
2
4
15
37
55
56
48
22
9
4
-4
-7
-21
-45
-54
-48
-43
-43
-77
-104
-103
-73
-41
-30
-37
-49
-44
-21
-10
-3
-6
-15
-2
3
11
18
30
35
44
53
56
62
73
80
83
87
76
71
76
75
71
59
44
30
25
21
30
28
18
3
-1
5
21
30
17
5
-8
-6
8
17
12
-1
-23
-21
-12
-4
4
-5
-10
4
23
45
57
53
58
71
96
111
113
100
93
103
115
114
111
97
86
93
90
94
98
103
102
107
106
101
103
103
98
89
80
56
44
40
30
24
11
1
-7
-5
-1
11
13
6
-6
0
17
43
55
53
47
45
64
84
92
89
72
58
64
67
75
74
61
52
64
77
92
90
84
81
92
107
103
88
60
46
44
39
25
11
-16
-22
-21
-22
-14
-7
0
4
16
21
30
44
59
68
78
75
71
76
80
81
73
67
55
53
49
53
56
46
24
12
9
16
24
6
-14
-38
-46
-39
-36
-45
-63
-94
-105
-104
-103
-99
-110
-122
-118
-100
-84
-68
-71
-72
-64
-43
-33
-33
-45
-59
-50
-36
-30
-32
-43
-54
-47
-47
-45
-41
-45
-53
-47
-45
-44
-35
-22
-14
-2
5
0
10
19
28
29
28
23
21
27
36
46
49
35
28
31
45
69
68
59
47
45
58
74
75
68
48
37
44
51
62
62
53
55
72
91
104
103
102
105
128
139
138
122
104
100
104
97
84
56
32
26
13
9
4
2
-7
-7
-4
1
17
35
47
65
76
76
88
98
107
104
102
92
81
77
76
80
72
53
36
31
48
69
66
59
47
44
64
81
85
81
54
42
44
41
39
21
-3
-11
-8
0
3
-5
-4
0
30
51
58
57
52
67
90
101
100
83
69
69
57
57
52
45
31
29
25
23
34
45
54
65
74
68
78
86
91
91
88
82
78
75
82
95
100
87
84
94
115
142
142
137
123
118
128
134
118
92
57
32
20
10
-1
-19
-41
-45
-40
-24
-15
-21
-15
-3
28
46
52
42
31
38
53
57
51
31
22
28
32
48
61
81
96
123
143
167
207
249
282
304
311
297
289
271
249
225
213
226
268
312
328
334
333
338
368
391
364
255
64
-155
-377
-596
-826
-1055
-1265
-1422
-1529
-1562
-1529
-1452
-1344
-1216
-1074
-915
-740
-574
-431
-319
-219
-125
-23
62
127
169
211
267
324
371
405
425
445
476
502
530
554
580
595
616
634
646
667
687
695
700
696
676
667
655
636
610
576
536
497
460
427
396
358
308
262
230
221
222
205
183
161
154
162
170
161
145
110
82
69
55
46
27
8
1
1
-3
-16
-46
-70
-83
-79
-82
-93
-116
-140
-146
-140
-140
-147
-166
-180
-175
-174
-158
-143
-132
-134
-114
-83
-44
8
56
95
125
142
136
136
129
113
80
34
-20
-80
-135
-182
-221
-262
-313
-349
-361
-344
-309
-292
-271
-253
-213
-156
-94
-47
-11
10
39
80
118
150
163
168
183
210
233
245
241
246
256
282
294
285
264
242
236
235
222
197
156
123
95
56
36
27
30
31
40
42
45
61
75
80
81
75
56
49
39
25
2
-23
-52
-70
-80
-77
-71
-77
-89
-89
-75
-41
-6
6
12
17
37
66
92
101
98
88
93
109
127
137
134
129
142
161
183
190
187
186
197
218
222
208
184
169
173
178
172
157
132
125
126
127
132
134
133
125
127
121
120
128
128
128
132
122
117
121
120
120
111
102
88
82
79
73
61
50
48
64
94
129
142
148
142
142
158
182
194
191
173
157
152
148
141
120
98
102
132
156
171
164
159
156
173
182
174
150
120
109
107
93
75
41
18
10
3
7
11
18
13
22
25
27
38
50
56
59
56
43
43
42
41
33
23
7
-1
-8
-7
0
-7
-26
-37
-39
-23
-7
-14
-27
-42
-46
-47
-54
-73
-92
-126
-145
-161
-165
-168
-182
-193
-187
-174
-157
-153
-156
-162
-150
-132
-129
-141
-171
-185
-184
-180
-187
-200
-226
-225
-220
-209
-187
-162
-143
-120
-92
-69
-37
-2
24
49
65
65
72
81
81
81
71
49
26
3
-13
-25
-47
-85
-126
-155
-177
-186
-214
-247
-288
-317
-325
-325
-332
-346
-369
-376
-368
-351
-336
-342
-352
-348
-329
-309
-298
-300
-301
-289
-255
-237
-229
-235
-238
-219
-196
-179
-165
-170
-159
-142
-124
-102
-84
-77
-69
-55
-53
-45
-32
-20
-13
-8
-20
-30
-35
-44
-53
-74
-101
-129
-152
-164
-170
-181
-204
-226
-234
-229
-207
-200
-201
-205
-200
-180
-150
-136
-136
-144
-146
-130
-111
-94
-98
-108
-110
-97
-76
-65
-69
-68
-57
-21
7
26
28
35
57
93
114
129
121
124
135
147
170
186
198
206
219
224
235
251
259
263
266
247
227
221
209
203
191
178
160
144
133
131
125
101
78
70
72
96
104
106
100
106
130
159
179
176
161
158
170
188
198
182
158
143
146
153
144
120
95
83
93
91
79
51
25
21
25
21
9
-23
-41
-46
-47
-38
-32
-27
-21
-2
10
28
54
78
98
118
118
122
140
147
149
143
128
108
95
83
78
69
40
16
6
8
15
10
0
-22
-27
-22
-11
-12
-29
-55
-65
-58
-43
-29
-30
-36
-26
-4
25
39
43
40
47
73
81
73
46
21
13
10
-6
-33
-74
-99
-121
-137
-145
-157
-177
-190
-196
-202
-197
-184
-174
-160
-143
-142
-132
-116
-107
-102
-104
-112
-123
-126
-128
-123
-126
-150
-160
-158
-142
-128
-131
-141
-153
-144
-123
-103
-95
-109
-125
-118
-99
-71
-63
-69
-74
-55
-29
-1
7
9
12
36
67
85
83
69
71
89
108
114
100
82
82
84
93
100
101
95
94
99
108
122
138
149
167
172
170
184
190
199
196
188
173
159
156
151
150
131
104
100
102
123
124
118
100
93
104
120
129
113
84
64
63
73
81
72
47
41
54
78
93
92
90
99
130
155
168
156
143
148
165
172
164
137
116
104
96
97
95
85
77
73
67
71
84
93
101
111
103
101
106
104
98
85
64
41
26
16
13
-1
-30
-49
-52
-37
-15
-8
-9
-14
-1
28
57
68
59
41
44
64
91
103
96
88
100
123
153
163
164
159
176
204
218
208
187
176
181
190
186
163
132
109
92
85
77
53
27
8
-13
-21
-23
-20
-21
-13
-23
-34
-29
-32
-34
-43
-63
-86
-103
-114
-111
-110
-127
-144
-140
-120
-85
-65
-54
-56
-48
-23
7
20
7
-23
-42
-45
-35
-35
-54
-81
-92
-82
-61
-53
-56
-64
-52
-25
-1
-1
-15
-24
-21
-5
0
-10
-32
-43
-48
-43
-29
-21
-25
-22
-16
-6
10
32
46
67
77
73
81
89
96
100
94
86
76
74
83
91
79
58
51
58
79
90
86
68
59
68
89
101
86
52
23
14
22
14
-9
-34
-55
-58
-48
-44
-53
-64
-63
-37
-17
-13
-24
-31
-27
-5
10
6
-6
-10
-9
5
24
40
47
63
76
97
122
151
174
200
216
212
219
220
216
214
194
167
141
125
118
115
99
68
54
54
71
81
76
56
46
51
69
82
68
35
10
3
16
24
14
-8
-16
-10
14
27
33
31
37
64
80
79
60
42
38
41
41
22
-6
-24
-35
-34
-25
-26
-33
-34
-40
-38
-34
-28
-33
-29
-33
-51
-56
-64
-70
-74
-86
-105
-114
-114
-105
-95
-100
-113
-112
-93
-62
-46
-37
-48
-43
-22
10
25
18
-7
-16
-9
17
26
19
0
-1
14
34
41
42
33
49
79
94
88
73
68
76
91
94
75
57
43
37
43
47
43
30
28
28
36
47
59
67
87
85
88
93
95
96
97
84
66
55
48
50
47
24
6
5
24
42
49
40
26
32
49
68
66
37
4
-12
-11
-3
-11
-37
-58
-60
-46
-33
-26
-24
-21
12
45
60
54
48
49
66
83
79
60
46
35
41
54
61
55
54
60
70
82
97
104
115
121
111
106
98
85
73
51
18
-6
-25
-34
-35
-51
-71
-74
-60
-26
-8
4
-4
5
29
65
83
68
36
13
5
15
10
-19
-53
-75
-80
-74
-79
-91
-110
-104
-83
-69
-82
-98
-104
-97
-78
-70
-84
-96
-106
-100
-86
-70
-71
-72
-65
-58
-38
-20
0
18
40
47
58
72
80
87
88
74
68
67
70
77
68
44
34
32
51
58
56
31
14
17
40
54
37
-1
-27
-32
-21
-13
-30
-59
-77
-75
-64
-66
-73
-87
-79
-55
-37
-37
-50
-55
-46
-23
-9
-23
-37
-45
-39
-21
0
10
11
21
32
55
75
95
111
136
141
151
163
169
176
179
165
151
141
139
137
124
95
71
61
71
73
65
41
23
24
43
59
50
20
-7
-17
-3
6
-10
-36
-55
-53
-37
-32
-35
-48
-40
-12
12
15
0
-7
-3
16
22
2
-25
-45
-57
-53
-51
-57
-73
-82
-88
-81
-68
-60
-53
-42
-43
-41
-39
-36
-31
-27
-36
-43
-44
-36
-24
-19
-33
-40
-39
-12
9
27
29
27
51
86
115
116
92
63
53
61
60
36
-9
-46
-63
-68
-83
-102
-131
-140
-124
-112
-114
-132
-139
-131
-105
-84
-87
-98
-101
-93
-71
-48
-40
-37
-33
-26
-10
12
25
41
61
69
83
97
109
118
128
124
115
116
119
129
125
99
82
73
87
92
85
64
40
41
58
75
63
33
1
-7
7
12
-2
-33
-53
-55
-44
-46
-53
-73
-69
-43
-22
-17
-25
-23
-10
27
52
53
52
53
71
100
127
132
130
131
141
163
178
187
192
193
175
168
156
144
136
118
87
60
43
34
26
3
-23
-39
-38
-20
-16
-13
-25
-24
-4
39
65
61
46
36
52
84
103
99
85
83
103
123
130
128
115
132
158
171
162
147
137
141
158
146
121
90
65
61
61
51
29
11
-5
-5
1
11
15
25
33
38
48
54
67
76
75
66
64
68
75
79
59
48
44
62
77
82
71
61
61
61
73
72
57
38
21
31
41
34
6
-21
-29
-18
-18
-28
-55
-62
-48
-39
-43
-72
-91
-106
-97
-96
-122
-147
-172
-175
-159
-144
-142
-143
-139
-131
-104
-79
-55
-35
-16
0
18
33
46
61
67
60
59
60
67
76
66
48
38
44
53
53
40
16
5
8
28
24
-6
-44
-79
-82
-81
-89
-120
-155
-178
-181
-183
-189
-201
-209
-185
-162
-155
-165
-174
-173
-154
-131
-136
-147
-164
-165
-146
-122
-111
-114
-108
-95
-72
-43
-19
4
29
46
67
87
103
119
129
128
128
130
134
140
128
108
93
95
104
101
89
61
50
50
74
81
56
30
7
9
25
30
15
-7
-19
-12
-3
-4
-16
-33
-19
4
13
3
-8
-16
-3
21
18
8
-6
-9
7
30
41
36
34
36
53
74
90
102
112
118
122
131
132
135
131
118
109
105
105
106
94
74
61
64
78
79
68
42
29
31
54
64
44
15
-10
-10
8
14
-3
-33
-57
-61
-66
-80
-105
-136
-134
-127
-125
-136
-149
-154
-141
-116
-115
-123
-135
-141
-125
-104
-95
-104
-115
-123
-115
-107
-96
-94
-89
-93
-92
-83
-84
-78
-75
-80
-82
-72
-64
-53
-51
-59
-58
-38
-7
13
21
18
25
47
86
113
103
84
63
68
85
91
75
51
40
43
52
52
38
20
29
48
54
44
32
31
43
62
58
47
32
26
41
62
66
61
50
49
65
81
99
106
113
113
116
119
115
112
101
82
64
50
41
34
19
-1
-10
3
23
31
28
11
6
18
48
53
30
2
-24
-18
-6
-5
-21
-43
-48
-37
-25
-15
-19
-21
3
26
38
30
22
23
34
47
35
15
-7
-15
-8
4
0
-13
-23
-25
-15
-3
6
9
11
5
6
6
-2
1
-9
-22
-32
-33
-31
-28
-41
-52
-53
-31
-9
2
1
-5
5
38
82
98
88
75
69
93
113
120
108
91
91
103
108
103
83
78
92
103
100
82
69
61
72
73
54
26
-5
-11
-4
2
-13
-32
-50
-50
-39
-29
-19
-11
-6
1
13
25
34
46
45
36
36
40
43
38
16
2
-2
14
25
24
2
-28
-53
-37
6
13
-5
-33
-37
-9
7
10
-1
-4
13
39
47
44
21
24
36
42
30
6
-12
-21
-12
-19
-43
-68
-87
-83
-68
-55
-58
-67
-69
-52
-29
-6
13
29
36
43
57
54
53
50
33
14
7
-4
-14
-33
-58
-73
-75
-59
-55
-63
-85
-99
-99
-82
-73
-102
-141
-182
-191
-188
-189
-209
-242
-259
-257
-249
-246
-260
-286
-266
-229
-197
-182
-171
-158
-131
-88
-75
-69
-74
-68
-48
-26
-19
-28
-37
-39
-24
-9
9
20
28
32
39
46
41
40
29
6
-12
-20
-30
-40
-63
-87
-97
-85
-67
-63
-69
-80
-73
-47
-6
4
-10
-29
-47
-27
-13
-14
-36
-65
-77
-75
-80
-88
-110
-112
-79
-40
1
45
110
194
308
414
498
569
623
684
743
785
793
781
751
729
708
682
646
594
538
473
415
354
288
227
154
85
29
-16
-62
-109
-165
-209
-234
-239
-254
-280
-318
-351
-367
-362
-366
-401
-445
-490
-507
-499
-496
-498
-510
-515
-516
-503
-488
-485
-488
-464
-440
-441
-471
-507
-532
-536
-526
-544
-568
-602
-619
-605
-578
-550
-525
-493
-449
-377
-286
-170
-53
53
144
236
315
374
425
457
477
494
513
523
528
518
504
506
529
559
580
594
602
627
678
735
758
749
733
713
718
711
684
629
564
508
457
403
338
252
180
123
64
-9
-92
-162
-226
-256
-291
-328
-358
-380
-364
-327
-282
-246
-211
-173
-117
-56
-2
45
78
97
105
110
98
75
48
-1
-53
-97
-139
-184
-231
-289
-333
-358
-360
-367
-387
-414
-427
-418
-380
-352
-352
-355
-359
-325
-269
-219
-181
-150
-101
-36
32
99
148
195
259
323
367
389
403
416
438
462
457
440
408
388
390
394
385
360
333
315
303
263
220
213
210
205
197
171
108
87
108
116
105
87
81
85
85
78
66
64
68
67
44
9
-10
-3
13
1
-34
-75
-105
-97
-92
-91
-115
-129
-128
-116
-105
-100
-105
-96
-70
-55
-60
-90
-114
-110
-84
-74
-80
-97
-118
-112
-99
-94
-106
-123
-145
-151
-156
-162
-167
-177
-189
-197
-193
-196
-189
-181
-183
-180
-171
-153
-138
-135
-138
-136
-118
-86
-70
-66
-76
-76
-39
2
-69
-126
-85
-38
-14
-22
-19
1
16
25
37
53
65
60
58
79
95
96
78
61
49
57
64
45
26
4
8
31
53
60
59
59
74
99
127
146
155
159
158
164
166
160
154
136
111
91
83
70
53
25
3
5
25
36
46
36
32
45
75
109
108
90
62
54
68
72
59
35
18
15
15
15
5
-11
4
15
25
11
-8
-19
-19
-3
-9
-26
-51
-59
-48
-31
-23
-28
-31
-27
-3
23
49
67
81
84
95
106
106
109
96
81
68
67
61
51
29
6
-6
5
12
10
-9
-28
-34
-20
3
-2
-21
-58
-74
-67
-58
-60
-81
-92
-95
-88
-93
-113
-140
-127
-96
-73
-61
-63
-58
-40
-13
-3
-10
-20
-30
-18
1
10
7
-3
-7
8
29
46
58
61
55
56
57
51
47
39
17
-3
-15
-29
-40
-67
-93
-108
-103
-83
-76
-81
-89
-87
-66
-27
-12
-19
-33
-52
-36
-23
-11
-20
-38
-41
-35
-31
-29
-45
-46
-25
-12
-5
-13
-17
-13
7
22
9
-9
-35
-36
-25
-19
-32
-52
-73
-77
-73
-66
-58
-57
-58
-61
-53
-49
-46
-43
-52
-59
-65
-62
-67
-75
-100
-114
-111
-91
-84
-84
-96
-105
-92
-61
-37
-44
-60
-79
-74
-53
-39
-40
-51
-49
-35
-19
-3
-2
2
28
56
69
64
61
59
73
89
77
58
31
18
24
30
32
48
-62
-210
-175
-63
-3
-46
-88
-78
-31
0
-11
-9
-12
-15
-16
-14
-11
-18
-36
-51
-51
-27
-9
-5
-7
-11
-1
28
59
56
35
3
-14
-20
-40
-53
-72
-81
-76
-67
-59
-30
-60
-164
-153
-43
29
6
-38
-23
36
68
60
36
26
42
63
70
65
52
41
34
48
57
86
107
94
108
110
134
158
156
113
88
94
118
123
99
60
53
91
133
138
115
102
42
-89
-80
17
53
-2
-62
-30
35
83
90
85
100
131
153
166
147
131
136
137
126
94
62
35
33
34
10
-16
-48
-61
-55
-46
-59
-79
-102
-110
-105
-99
-95
-96
-96
-100
-91
-84
-87
-75
-75
-75
-69
-55
-42
-35
-38
-36
-26
7
30
42
41
32
39
68
99
98
82
59
49
67
77
75
54
41
40
44
44
33
4
-6
-2
-4
-21
-49
-76
-88
-84
-96
-123
-152
-175
-172
-161
-151
-158
-169
-170
-157
-143
-127
-118
-115
-114
-114
-104
-105
-98
-93
-97
-92
-77
-59
-40
-30
-22
-8
21
62
83
93
85
84
97
121
130
103
70
33
25
32
29
9
-18
-32
-36
-30
-30
-42
-53
-39
-21
-21
-37
-52
-61
-54
-43
-60
-80
-108
-114
-102
-84
-84
-90
-94
-87
-63
-38
-15
-3
4
7
15
22
18
21
16
4
-5
-6
-5
-4
-19
-28
-30
-11
9
14
8
-10
-13
-1
24
22
-5
-34
-59
-49
-40
-39
-55
-70
-66
-50
-36
-24
-32
-22
7
33
40
30
24
25
46
57
42
24
3
7
26
42
42
30
21
32
49
67
81
88
91
89
93
91
81
78
60
41
30
22
18
11
-7
-23
-22
-3
8
6
-6
-28
-34
-18
1
-17
-43
-81
-93
-73
-52
-38
-43
-32
-3
46
84
114
129
165
224
273
305
327
351
388
436
452
440
410
374
360
356
355
352
372
419
469
490
500
529
581
643
658
588
432
237
15
-240
-498
-757
-985
-1164
-1295
-1380
-1413
-1390
-1314
-1215
-1092
-962
-824
-676
-520
-383
-287
-202
-131
-35
71
155
219
262
317
388
461
520
564
597
656
716
764
784
798
814
835
859
842
810
762
722
697
666
615
541
464
391
338
280
220
153
87
25
-28
-65
-107
-130
-149
-170
-170
-153
-131
-106
-86
-72
-51
-11
29
47
52
39
37
50
77
79
48
15
-16
-13
-7
-8
-27
-52
-56
-47
-37
-31
-41
-44
-18
2
8
-6
-17
-21
-5
9
-9
-27
-51
-58
-46
-29
-30
-40
-40
-24
0
23
44
51
64
74
86
98
96
107
97
89
85
86
84
81
63
47
44
63
70
63
45
22
14
30
52
39
11
-21
-38
-23
-17
-16
-37
-54
-58
-51
-50
-55
-75
-77
-61
-54
-58
-65
-65
-55
-25
-14
-15
-27
-38
-26
-15
-14
-38
-78
-117
-138
-162
-181
-204
-236
-263
-281
-285
-296
-300
-302
-305
-299
-281
-256
-238
-221
-211
-198
-162
-116
-89
-70
-67
-57
-36
7
25
12
-10
-38
-37
-35
-43
-69
-107
-134
-144
-151
-160
-182
-202
-189
-169
-150
-148
-154
-161
-161
-151
-151
-149
-166
-168
-161
-154
-162
-186
-215
-231
-237
-248
-256
-275
-296
-318
-324
-335
-353
-365
-391
-412
-425
-426
-427
-429
-438
-439
-422
-373
-336
-304
-280
-252
-206
-135
-61
-22
1
12
43
94
127
145
140
141
157
166
179
170
165
174
185
192
174
157
135
132
132
111
87
53
28
28
30
24
-1
-28
-44
-43
-42
-39
-40
-50
-54
-54
-49
-52
-50
-52
-60
-60
-56
-55
-57
-81
-100
-115
-107
-95
-100
-120
-145
-159
-147
-126
-132
-158
-197
-223
-218
-212
-215
-237
-254
-261
-256
-246
-242
-251
-242
-210
-183
-166
-163
-161
-145
-109
-92
-97
-108
-123
-109
-88
-74
-82
-92
-101
-97
-82
-73
-65
-66
-68
-69
-65
-61
-56
-50
-56
-53
-45
-31
-14
-10
-16
-2
13
55
81
91
96
99
122
161
191
190
179
158
163
181
189
187
164
162
166
173
176
166
153
165
177
176
159
131
109
102
104
77
45
5
-15
-14
-2
-3
-24
-41
-45
-29
-13
6
9
17
12
14
22
17
27
20
12
8
5
-3
-15
-26
-26
-16
16
47
64
69
66
71
89
121
118
87
51
15
16
17
12
-11
-27
-26
-10
13
31
36
58
102
141
165
169
178
191
222
242
234
219
195
195
207
215
203
181
159
154
160
164
166
159
153
144
144
146
143
143
133
127
123
126
129
124
112
105
108
133
146
149
137
127
128
151
174
157
129
90
71
77
72
58
21
0
-10
-7
-6
-11
-27
-18
2
13
7
-5
-10
-8
8
1
-20
-46
-65
-59
-54
-54
-76
-102
-120
-123
-125
-124
-132
-145
-160
-172
-175
-186
-194
-207
-228
-240
-244
-244
-246
-250
-259
-259
-239
-207
-192
-184
-189
-185
-168
-129
-112
-126
-145
-168
-158
-143
-133
-139
-152
-150
-134
-111
-92
-85
-78
-44
-7
15
17
20
30
52
78
70
59
42
41
57
74
75
61
48
49
65
75
90
93
89
85
81
80
65
55
34
7
-15
-26
-37
-46
-65
-84
-91
-75
-53
-45
-42
-49
-40
-13
30
41
29
10
-2
19
35
44
28
13
9
18
27
30
13
11
30
50
54
36
24
16
25
25
1
-28
-62
-74
-72
-72
-85
-102
-113
-105
-89
-73
-59
-52
-46
-41
-29
-18
-16
-7
-13
-20
-16
-7
2
8
3
2
13
49
75
87
88
86
98
132
167
165
144
118
109
131
141
139
116
102
104
117
122
118
101
109
129
141
133
119
109
109
122
107
86
56
32
35
41
40
19
0
-13
-4
5
22
31
37
40
49
61
63
71
73
64
63
72
85
95
97
92
98
122
158
178
184
177
176
193
232
241
218
187
149
148
147
137
102
59
31
16
3
-13
-45
-69
-64
-59
-64
-85
-105
-115
-108
-103
-122
-148
-184
-194
-192
-187
-199
-221
-242
-245
-236
-227
-219
-218
-216
-215
-201
-189
-182
-167
-165
-157
-145
-123
-103
-90
-87
-82
-68
-31
-6
3
-2
-9
-6
15
42
31
6
-29
-48
-36
-34
-40
-66
-85
-88
-80
-78
-79
-98
-91
-69
-54
-56
-68
-71
-62
-39
-38
-47
-61
-74
-62
-44
-31
-41
-49
-54
-42
-32
-19
-11
-11
-12
-14
-6
-11
-14
-13
-27
-34
-33
-23
-17
-21
-31
-28
-13
20
37
39
34
25
38
68
84
71
50
22
24
41
54
54
41
39
50
73
90
93
91
116
149
169
168
167
171
189
212
209
195
174
165
176
186
183
165
146
140
151
158
168
170
169
165
165
165
156
151
134
111
92
76
64
51
27
2
-15
-13
2
5
-1
-19
-26
-13
21
31
9
-16
-41
-24
-6
4
-4
-18
-19
-6
8
16
10
6
28
50
53
39
26
15
24
29
3
-24
-58
-70
-66
-60
-71
-89
-104
-102
-86
-72
-59
-49
-42
-38
-24
-15
-11
0
-6
-12
-14
-4
1
1
-11
-26
-35
-16
0
2
-4
-19
-17
6
35
24
-3
-36
-55
-36
-28
-27
-50
-65
-62
-44
-29
-21
-30
-22
0
11
6
-13
-23
-27
-7
0
-10
-20
-30
-12
9
27
25
17
12
23
37
50
58
53
50
45
50
53
58
54
34
15
6
3
-8
-27
-55
-75
-70
-46
-29
-25
-28
-24
0
44
75
66
48
14
12
18
14
-6
-41
-61
-69
-66
-65
-71
-79
-59
-35
-20
-26
-34
-42
-33
-21
-39
-58
-91
-105
-102
-97
-106
-131
-150
-159
-151
-144
-133
-127
-124
-115
-99
-76
-65
-46
-38
-22
7
48
78
110
136
120
48
-17
-30
14
78
113
130
158
202
214
188
138
92
79
58
29
-29
-83
-120
-138
-151
-164
-189
-191
-171
-158
-158
-168
-171
-163
-133
-124
-127
-134
-139
-112
-84
-61
-58
-59
-57
-41
-27
-12
-2
-7
-11
-12
-7
-13
-15
-18
-28
-33
-28
-15
-5
-5
-12
-11
9
40
53
52
39
29
43
75
86
64
33
3
9
21
26
17
3
6
23
44
63
71
79
116
149
165
162
162
165
186
201
189
176
155
154
169
180
173
160
146
155
173
189
208
208
211
210
210
205
187
176
149
122
97
82
66
46
20
-7
-19
2
18
25
23
22
42
89
127
127
124
124
141
172
181
176
147
125
113
101
83
57
15
-5
-12
-28
-58
-93
-119
-131
-122
-134
-156
-177
-188
-165
-139
-115
-105
-98
-80
-43
-6
33
64
86
101
120
134
138
142
138
122
108
101
96
85
65
41
21
21
35
28
20
-4
-21
-14
12
21
0
-27
-60
-54
-42
-36
-51
-76
-85
-84
-77
-73
-82
-93
-76
-56
-47
-59
-70
-75
-61
-48
-65
-85
-114
-117
-110
-98
-101
-117
-127
-122
-105
-93
-79
-77
-77
-81
-79
-82
-91
-92
-103
-114
-120
-116
-109
-102
-104
-104
-93
-59
-33
-20
-20
-32
-30
-7
22
14
-11
-40
-56
-34
-19
-8
-22
-31
-23
-8
4
5
-8
-7
13
21
13
-10
-22
-25
-7
-10
-30
-53
-72
-65
-51
-41
-49
-60
-63
-43
-23
-3
10
18
25
34
45
46
46
43
27
13
6
5
-1
-12
-35
-52
-50
-29
-21
-27
-40
-46
-35
1
21
6
-19
-55
-55
-47
-53
-72
-108
-128
-132
-126
-123
-128
-137
-115
-87
-70
-71
-71
-69
-50
-27
-32
-43
-66
-68
-54
-38
-39
-51
-58
-50
-28
-7
12
20
29
33
45
54
50
56
50
41
38
44
51
57
51
47
51
76
99
106
104
92
93
116
148
142
119
84
60
74
77
75
49
28
24
28
33
32
21
26
49
65
67
56
52
56
79
82
66
44
24
28
37
42
24
6
-1
13
26
43
52
58
63
66
78
75
75
76
62
49
45
44
38
29
10
-4
3
20
22
11
-12
-30
-24
3
8
-18
-52
-90
-93
-88
-86
-103
-124
-125
-115
-94
-70
-61
-48
-7
32
58
63
66
72
92
107
92
74
46
44
55
68
63
53
47
57
79
101
117
125
134
138
142
142
131
126
106
83
64
55
40
27
2
-20
-29
-17
-7
-7
-18
-35
-33
-7
19
8
-18
-59
-81
-77
-87
-107
-147
-178
-193
-196
-199
-205
-222
-207
-176
-150
-142
-136
-123
-97
-56
-42
-42
-46
-47
-22
3
18
10
4
0
16
32
49
58
62
69
76
88
88
87
83
73
63
59
58
52
38
23
8
14
33
33
27
8
-5
1
27
38
11
-19
-54
-53
-49
-54
-76
-111
-127
-131
-129
-130
-142
-152
-130
-103
-90
-94
-96
-87
-61
-32
-36
-44
-58
-58
-43
-28
-32
-48
-61
-58
-41
-23
-5
5
19
29
45
61
62
73
72
64
58
55
57
55
43
30
23
38
62
67
68
60
59
79
113
122
99
69
41
48
57
58
40
12
4
15
26
31
25
28
61
89
105
97
96
99
119
136
120
101
77
74
87
95
89
65
50
47
55
54
57
46
37
24
14
4
-17
-25
-40
-63
-79
-86
-85
-85
-93
-103
-113
-102
-78
-75
-80
-97
-105
-95
-68
-68
-95
-126
-153
-142
-130
-123
-136
-155
-155
-138
-122
-109
-111
-112
-83
-56
-41
-49
-55
-52
-30
-8
-17
-25
-39
-32
-10
12
14
3
-5
1
17
24
26
19
12
0
-4
-17
-37
-46
-64
-83
-97
-104
-102
-100
-109
-115
-115
-93
-65
-52
-46
-52
-46
-19
21
32
15
-9
-29
-10
4
8
-11
-28
-29
-11
9
22
20
26
60
89
98
91
86
89
108
118
104
87
66
72
88
103
100
83
75
88
104
115
119
112
110
98
94
78
57
43
15
-6
-24
-35
-41
-49
-67
-84
-91
-73
-64
-66
-80
-100
-104
-82
-62
-78
-107
-142
-154
-134
-125
-120
-138
-142
-129
-106
-87
-71
-73
-53
-18
3
5
-5
-13
-14
-3
-19
-46
-78
-106
-104
-95
-94
-108
-119
-118
-97
-76
-52
-39
-28
-13
2
25
31
44
49
47
52
58
71
79
75
63
58
66
92
97
92
77
69
81
116
128
112
87
57
66
80
85
70
44
33
34
41
44
36
22
38
55
62
47
32
21
28
32
9
-14
-45
-54
-46
-37
-43
-59
-69
-64
-43
-30
-9
4
18
26
39
47
43
44
30
16
2
-8
-19
-29
-52
-75
-86
-68
-50
-42
-36
-37
-17
23
77
101
99
90
86
118
138
149
133
116
106
113
115
107
83
69
80
84
73
48
30
17
26
22
-7
-34
-67
-70
-62
-66
-79
-101
-115
-110
-104
-94
-89
-88
-87
-89
-88
-88
-88
-90
-108
-119
-128
-129
-133
-136
-141
-146
-146
-121
-99
-90
-90
-93
-82
-49
-9
-11
-29
-54
-66
-45
-39
-39
-61
-77
-74
-56
-42
-33
-38
-23
16
44
55
48
47
48
64
52
18
-24
-64
-82
-91
-107
-141
-169
-186
-179
-167
-155
-141
-116
-73
-17
61
137
225
321
407
492
574
649
709
747
763
768
771
785
775
749
704
652
614
593
559
487
405
314
252
213
162
99
20
-41
-84
-115
-151
-191
-240
-263
-274
-298
-343
-397
-446
-481
-506
-552
-608
-663
-703
-712
-705
-700
-705
-703
-687
-649
-615
-581
-562
-547
-531
-522
-509
-513
-516
-527
-548
-566
-575
-575
-577
-577
-568
-548
-506
-436
-374
-313
-249
-175
-79
33
123
169
203
237
297
350
375
377
372
388
424
454
460
456
449
478
513
537
541
548
571
605
637
625
598
564
533
517
487
444
384
332
293
266
239
216
186
161
138
125
116
96
86
68
41
20
4
-7
-25
-54
-92
-128
-142
-145
-169
-198
-239
-271
-283
-272
-279
-318
-358
-395
-395
-387
-388
-404
-429
-431
-418
-396
-378
-373
-364
-326
-285
-255
-249
-239
-222
-190
-156
-154
-154
-161
-146
-109
-67
-41
-25
-6
37
89
134
181
207
235
254
272
283
275
277
265
255
245
241
241
237
226
212
203
220
243
245
241
225
219
230
255
246
216
177
139
140
139
128
99
70
58
72
85
92
86
86
115
137
143
132
122
113
122
124
99
70
39
35
40
47
32
10
-1
6
22
35
41
40
49
52
62
65
57
56
46
37
33
36
35
29
16
3
1
22
34
33
24
9
8
32
56
43
16
-19
-36
-26
-24
-29
-55
-74
-77
-65
-54
-48
-55
-42
-6
24
35
34
38
49
78
81
67
47
30
36
48
60
49
36
37
55
76
98
111
119
128
134
144
140
134
126
106
87
76
68
59
44
26
12
12
36
42
41
27
13
19
45
53
25
-11
-57
-67
-65
-71
-97
-132
-149
-151
-139
-133
-136
-143
-115
-86
-66
-66
-72
-71
-59
-41
-55
-73
-104
-113
-98
-84
-79
-91
-99
-86
-53
-35
-17
-12
5
15
28
40
38
48
47
41
39
38
30
19
-5
-30
-51
-43
-33
-39
-44
-59
-54
-23
24
41
37
30
23
56
76
87
72
52
46
47
45
31
1
-22
-15
-15
-29
-60
-80
-91
-83
-86
-117
-146
-178
-181
-175
-174
-193
-210
-221
-208
-192
-172
-158
-148
-132
-120
-98
-89
-81
-73
-76
-78
-78
-71
-72
-76
-92
-101
-97
-67
-50
-39
-34
-33
-12
33
70
69
53
28
29
50
56
52
25
17
20
35
47
54
43
64
94
115
113
105
103
107
121
103
75
41
16
13
10
-2
-32
-54
-63
-52
-43
-31
-32
-30
-25
-21
-13
-23
-26
-35
-47
-56
-52
-50
-50
-55
-63
-58
-32
0
13
17
13
15
45
82
85
66
32
8
21
21
17
-10
-34
-44
-43
-42
-46
-65
-70
-51
-38
-41
-61
-74
-78
-64
-72
-96
-131
-164
-168
-167
-170
-193
-215
-225
-211
-196
-173
-154
-138
-118
-95
-65
-51
-30
-16
-9
-3
11
28
34
36
27
22
43
66
69
64
48
38
49
81
83
67
38
12
23
31
34
18
-1
-5
-1
7
12
0
1
28
51
58
51
47
54
80
84
68
47
23
25
35
37
16
0
-6
7
23
40
55
64
74
88
104
100
99
85
69
52
45
40
26
10
-6
-14
10
44
58
67
69
76
111
156
164
155
129
107
120
126
127
108
91
85
96
103
111
100
107
130
146
149
139
128
129
146
138
118
86
66
63
67
58
31
7
-9
-5
-4
-1
-8
-14
-24
-29
-35
-52
-67
-94
-119
-137
-146
-159
-173
-196
-211
-217
-190
-172
-164
-164
-171
-162
-128
-96
-96
-104
-132
-129
-111
-100
-100
-111
-116
-107
-91
-77
-75
-82
-55
-30
-9
-10
-10
-14
3
15
5
-11
-40
-45
-43
-34
-49
-70
-88
-89
-82
-73
-66
-69
-70
-73
-67
-75
-78
-93
-111
-126
-124
-123
-134
-145
-162
-169
-148
-116
-107
-101
-105
-103
-79
-34
-28
-31
-52
-65
-49
-40
-42
-60
-72
-77
-69
-65
-61
-75
-59
-31
-12
-3
-11
-11
2
19
14
1
-26
-32
-27
-12
-14
-21
-26
-14
11
36
62
80
99
111
132
138
141
139
122
105
101
99
84
65
36
11
20
44
45
43
23
9
19
50
50
29
-3
-34
-33
-35
-46
-78
-102
-119
-115
-115
-120
-144
-139
-120
-114
-113
-128
-139
-135
-121
-131
-143
-167
-171
-162
-142
-136
-146
-146
-133
-110
-82
-52
-34
-16
4
27
41
52
55
44
37
36
47
40
28
5
-16
-7
17
23
21
0
-17
-12
14
17
0
-31
-60
-58
-61
-65
-96
-119
-132
-129
-129
-131
-150
-146
-119
-100
-89
-84
-79
-58
-25
-15
-9
-17
-5
20
57
76
80
87
109
147
181
217
240
264
292
335
372
405
419
419
421
433
457
472
493
518
576
662
741
767
770
765
789
837
839
714
502
242
-23
-271
-530
-788
-1033
-1217
-1325
-1360
-1349
-1310
-1247
-1129
-976
-824
-682
-563
-457
-347
-241
-162
-101
-55
-1
56
118
153
175
205
245
297
346
391
430
474
521
580
625
666
686
699
707
727
741
732
709
669
629
620
601
558
498
420
346
287
229
134
36
-79
-166
-231
-295
-355
-414
-452
-467
-460
-452
-446
-438
-397
-353
-318
-297
-284
-271
-243
-216
-215
-227
-247
-250
-247
-240
-257
-275
-287
-284
-269
-255
-243
-231
-220
-207
-187
-176
-163
-166
-168
-168
-148
-132
-122
-114
-117
-102
-57
-25
2
20
24
47
87
127
135
137
119
123
140
152
147
132
122
128
139
149
148
139
162
182
197
196
190
185
196
201
187
169
141
137
144
154
139
122
115
123
136
145
149
149
143
139
137
119
105
72
38
3
-18
-38
-70
-111
-154
-189
-191
-193
-209
-231
-263
-276
-263
-247
-258
-276
-305
-314
-306
-297
-300
-314
-317
-301
-279
-260
-252
-249
-217
-187
-160
-150
-146
-146
-128
-118
-129
-147
-171
-169
-155
-132
-132
-129
-117
-89
-51
-15
18
45
66
84
110
114
117
102
81
59
53
44
26
4
-21
-36
-14
8
21
30
24
31
65
105
107
106
85
89
104
109
105
90
82
87
96
101
91
79
94
105
107
95
77
63
63
56
31
-3
-42
-59
-67
-68
-90
-111
-127
-122
-106
-88
-71
-55
-44
-24
1
11
26
24
22
18
29
37
34
22
7
3
30
54
69
72
66
70
97
126
122
107
80
72
79
79
63
39
22
19
19
16
3
-20
-7
-3
-3
-19
-42
-63
-68
-79
-109
-145
-184
-197
-202
-200
-223
-242
-254
-245
-234
-217
-206
-193
-182
-165
-140
-126
-106
-104
-105
-101
-82
-71
-66
-68
-73
-70
-29
1
23
34
39
55
97
135
135
132
111
114
125
128
120
102
93
98
106
109
98
89
111
125
132
127
117
112
125
122
109
83
62
60
68
71
51
36
27
38
50
63
69
72
70
79
85
84
82
62
46
33
36
25
9
-13
-37
-37
-14
-9
-5
-14
-25
-14
20
32
26
8
-7
1
10
12
-5
-15
-17
-8
6
17
5
19
47
63
77
74
68
70
82
70
49
17
3
-4
2
-6
-29
-40
-37
-23
-5
13
23
36
41
60
63
64
53
32
11
0
-8
-27
-53
-85
-116
-116
-110
-120
-130
-152
-165
-151
-122
-124
-131
-152
-155
-137
-120
-111
-114
-111
-94
-65
-44
-33
-31
-2
24
47
54
52
51
63
75
67
48
25
23
24
36
18
-7
-22
-25
-22
-19
-25
-34
-48
-59
-61
-75
-84
-109
-129
-144
-138
-137
-134
-138
-144
-139
-99
-71
-48
-35
-37
-20
13
45
42
37
13
19
29
37
26
7
1
6
19
29
19
14
42
57
70
70
60
60
73
69
58
30
12
10
14
12
-13
-36
-49
-46
-36
-27
-23
-22
-16
-3
9
18
26
20
15
22
38
43
43
36
24
36
67
74
77
67
57
67
97
102
89
68
55
64
75
78
66
57
57
74
91
98
90
111
135
154
166
164
162
174
188
182
169
144
138
140
157
149
131
124
133
146
167
178
181
184
187
194
190
185
164
132
104
93
73
47
18
-14
-35
-20
-19
-19
-27
-43
-40
-13
5
-6
-24
-52
-57
-57
-56
-78
-100
-113
-111
-101
-92
-104
-100
-78
-66
-56
-58
-67
-66
-57
-63
-77
-110
-124
-126
-120
-123
-148
-170
-172
-165
-153
-136
-132
-124
-117
-97
-85
-71
-69
-78
-87
-82
-79
-88
-102
-127
-148
-133
-127
-134
-145
-171
-186
-176
-164
-182
-204
-232
-238
-231
-222
-225
-232
-226
-208
-181
-148
-136
-113
-74
-43
-14
2
6
20
43
52
49
26
19
24
39
53
44
35
38
58
81
103
115
121
128
145
153
161
157
139
123
125
123
109
92
67
49
65
80
80
81
69
64
88
110
103
89
61
54
60
63
49
32
21
25
35
47
42
46
65
76
89
85
74
72
81
76
61
26
9
6
10
14
0
-14
-13
1
26
49
58
65
69
80
87
91
82
64
43
43
42
29
10
-16
-33
-17
-5
-9
-17
-39
-48
-32
-14
-27
-45
-74
-79
-72
-68
-82
-98
-108
-105
-98
-86
-99
-99
-86
-77
-69
-74
-84
-84
-71
-71
-79
-106
-117
-110
-99
-87
-97
-110
-107
-95
-74
-52
-41
-36
-33
-15
-6
3
0
-13
-27
-24
-18
-30
-42
-62
-72
-44
-24
-15
-18
-24
-17
13
40
39
26
8
11
19
27
15
2
-6
2
21
41
35
54
86
107
127
131
126
132
141
138
119
83
67
66
70
70
60
45
50
64
88
107
117
122
121
127
130
126
113
93
70
71
67
55
41
29
25
59
78
91
96
97
111
148
170
162
144
118
120
122
120
97
72
59
55
58
58
33
39
47
53
58
48
39
46
57
57
48
24
23
29
41
43
28
16
20
29
45
55
55
54
51
57
56
54
39
20
7
10
5
-7
-21
-38
-35
-4
5
11
2
-9
2
29
35
20
-13
-43
-46
-47
-59
-84
-107
-121
-118
-108
-106
-120
-105
-92
-84
-79
-93
-107
-106
-116
-129
-165
-204
-223
-236
-243
-264
-294
-312
-316
-309
-293
-284
-277
-270
-262
-245
-235
-231
-237
-245
-243
-230
-223
-226
-227
-227
-195
-152
-129
-108
-103
-92
-66
-29
-23
-30
-56
-60
-53
-45
-50
-61
-66
-60
-45
-24
-23
-17
8
19
32
33
20
14
14
8
-5
-40
-63
-70
-64
-60
-67
-79
-76
-58
-35
-6
6
20
32
47
64
79
78
71
63
72
78
73
63
51
49
81
97
104
100
89
92
116
127
111
81
50
46
46
46
30
10
4
12
25
35
25
46
62
70
79
71
63
68
70
67
51
26
21
27
37
38
30
31
46
69
99
120
133
142
151
166
177
178
161
142
134
134
125
101
78
53
64
85
84
82
60
52
66
86
75
54
16
-4
-3
-6
-22
-42
-54
-51
-40
-22
-19
-3
32
54
84
100
107
127
148
159
163
144
141
149
162
165
151
139
134
137
145
149
142
131
119
114
110
103
84
61
48
53
54
41
27
4
5
34
38
36
13
-8
-3
17
13
-11
-43
-67
-63
-58
-70
-85
-104
-106
-98
-88
-95
-97
-77
-69
-61
-61
-72
-73
-63
-62
-69
-92
-107
-106
-97
-91
-101
-107
-102
-89
-64
-44
-37
-33
-34
-36
-30
-33
-51
-79
-98
-103
-106
-122
-146
-170
-173
-138
-120
-105
-114
-125
-113
-79
-67
-73
-92
-110
-105
-94
-96
-105
-111
-105
-90
-68
-63
-55
-24
-2
14
25
18
21
32
33
23
-5
-25
-28
-21
-16
-21
-27
-18
1
27
58
75
85
88
99
113
121
106
81
60
56
52
35
8
-21
-33
-13
-9
-5
-21
-33
-26
3
15
5
-12
-29
-22
-9
-13
-19
-28
-27
-15
-1
0
-1
20
33
43
46
34
35
44
49
42
22
10
15
27
34
33
29
36
53
82
105
122
131
136
143
162
173
164
144
131
129
129
114
91
60
46
59
51
44
10
-21
-33
-26
-39
-68
-103
-134
-143
-146
-164
-181
-200
-203
-199
-185
-187
-180
-151
-131
-110
-96
-94
-77
-52
-32
-25
-38
-35
-23
-5
3
1
-2
1
15
38
57
68
69
67
72
83
90
74
51
35
30
29
8
-14
-38
-36
-14
-11
-4
-24
-34
-30
-13
-21
-42
-76
-104
-108
-113
-132
-149
-164
-161
-146
-128
-127
-107
-75
-54
-31
-21
-17
2
19
35
28
10
7
15
27
27
21
14
18
31
52
64
71
67
63
64
74
67
46
18
7
2
-4
-26
-47
-72
-62
-49
-43
-47
-64
-66
-49
-28
-30
-44
-65
-71
-60
-59
-70
-83
-92
-87
-77
-74
-82
-70
-59
-50
-43
-56
-68
-62
-67
-71
-102
-126
-139
-139
-137
-145
-157
-156
-144
-118
-83
-60
-40
-29
-19
4
24
29
15
3
9
17
16
4
-2
4
46
73
102
111
115
137
169
183
172
145
114
96
90
58
23
-16
-40
-55
-62
-81
-92
-86
-82
-72
-74
-83
-77
-69
-53
-50
-67
-67
-57
-34
-20
-13
-6
13
39
76
109
132
142
151
167
190
199
189
169
164
163
162
141
122
98
111
127
133
132
113
111
123
134
120
94
61
39
36
17
-15
-47
-76
-93
-99
-111
-129
-123
-118
-109
-96
-100
-94
-80
-66
-49
-61
-64
-60
-42
-25
-23
-21
-11
7
34
70
92
110
117
130
157
180
183
171
165
172
182
173
159
142
148
173
178
190
178
170
182
203
199
182
155
132
126
121
101
78
54
46
48
50
36
46
55
62
71
65
54
57
57
54
39
13
-2
-4
-2
-6
-19
-27
-23
-10
15
27
30
25
19
32
41
35
14
-7
-12
-9
-17
-34
-49
-54
-21
-4
16
14
18
37
71
91
89
80
72
81
96
91
89
78
83
95
108
109
118
132
140
156
152
143
145
145
144
129
100
80
67
66
53
27
7
-5
-12
-7
-13
-25
-49
-76
-84
-85
-92
-118
-147
-156
-156
-152
-169
-179
-190
-160
-141
-125
-122
-130
-120
-101
-84
-93
-108
-124
-129
-114
-119
-121
-127
-118
-102
-74
-63
-46
-16
-3
20
26
20
26
32
36
32
15
7
9
24
33
27
29
38
51
82
99
112
109
102
106
117
113
90
60
48
39
34
12
-7
-22
0
20
36
39
32
43
66
83
76
53
30
14
14
-3
-24
-55
-72
-77
-76
-85
-87
-76
-74
-63
-65
-80
-81
-87
-90
-102
-129
-149
-159
-151
-150
-158
-162
-155
-143
-113
-91
-79
-76
-81
-69
-49
-43
-54
-75
-80
-81
-76
-89
-105
-114
-92
-71
-54
-56
-63
-54
-28
-12
-17
-30
-46
-52
-42
-48
-60
-74
-81
-73
-57
-60
-50
-28
-21
-2
5
2
10
20
28
24
11
6
5
17
27
23
23
27
35
59
68
68
52
29
25
23
14
-11
-45
-62
-71
-79
-98
-115
-124
-101
-81
-60
-56
-54
-34
-1
18
18
10
-1
-1
16
11
13
10
18
40
67
78
105
137
160
189
202
210
226
237
252
247
237
229
231
242
245
236
232
233
243
266
273
269
251
229
220
214
195
157
119
91
69
49
12
-20
-45
-38
-38
-34
-55
-68
-61
-42
-34
-42
-57
-69
-64
-57
-61
-67
-81
-84
-77
-67
-76
-69
-62
-65
-58
-68
-80
-79
-82
-80
-97
-118
-124
-125
-113
-109
-120
-124
-122
-116
-95
-90
-87
-100
-110
-102
-90
-85
-98
-106
-92
-67
-77
-114
-112
-55
16
42
62
64
78
109
138
142
128
105
79
65
53
23
-10
-47
-69
-77
-78
-94
-86
-77
-69
-55
-59
-64
-57
-65
-73
-93
-108
-107
-109
-108
-113
-131
-130
-118
-81
-100
-173
-144
-80
-52
-63
-75
-70
-70
-84
-103
-114
-127
-149
-176
-192
-177
-173
-166
-171
-166
-129
-65
2
68
145
229
335
442
527
600
649
701
742
773
772
770
755
727
701
644
581
524
460
400
327
241
167
100
48
-4
-64
-111
-149
-169
-164
-178
-200
-229
-260
-271
-281
-307
-359
-417
-465
-502
-536
-580
-620
-641
-627
-628
-620
-624
-619
-596
-557
-528
-524
-536
-560
-576
-593
-626
-649
-674
-693
-695
-690
-692
-672
-651
-631
-600
-583
-563
-529
-496
-459
-437
-413
-374
-323
-258
-202
-155
-97
-30
44
133
207
276
332
389
457
521
573
602
628
659
691
710
708
700
700
721
729
726
691
654
623
589
534
455
362
265
183
110
28
-45
-115
-160
-177
-176
-174
-141
-102
-55
1
47
92
139
177
206
209
204
194
179
159
121
65
-4
-52
-68
-71
-87
-120
-173
-212
-227
-243
-267
-306
-324
-330
-326
-333
-335
-336
-312
-272
-239
-205
-191
-167
-124
-77
-44
-26
-11
4
41
68
82
95
108
136
173
205
226
272
302
332
358
361
368
379
382
382
356
337
317
310
297
277
247
234
216
213
207
185
163
145
150
162
163
146
117
103
93
87
70
55
45
58
75
97
101
92
96
106
112
99
75
48
22
14
-7
-33
-61
-82
-95
-101
-113
-122
-112
-120
-112
-113
-121
-117
-113
-107
-114
-131
-141
-147
-145
-145
-154
-164
-163
-157
-133
-113
-102
-103
-109
-98
-82
-73
-82
-98
-101
-101
-99
-111
-118
-122
-98
-79
-62
-60
-66
-52
-30
-15
-20
-31
-44
-49
-38
-53
-70
-89
-90
-67
-28
-7
21
49
63
93
105
113
126
132
135
125
107
96
92
93
92
80
73
72
81
103
114
118
105
93
106
155
61
-111
-109
-28
18
-30
-89
-100
-66
-26
-10
8
11
17
40
65
75
67
54
40
40
18
-24
-42
-53
-49
-34
-23
-20
2
5
13
19
11
10
15
17
8
-13
-33
-46
-51
-58
-67
-84
-93
-102
-91
-77
-75
-80
-100
-108
-102
-99
-113
-141
-153
-159
-159
-166
-173
-175
-148
-122
-91
-75
-73
-56
-26
-2
-2
-6
-16
-22
-11
-24
-28
-35
-41
-36
-23
-19
-2
24
34
52
54
52
59
66
69
53
34
24
18
17
13
0
-6
-8
1
21
25
27
12
-7
4
10
11
-6
-20
-21
-18
-18
-20
-24
-7
16
40
59
58
63
80
100
100
85
73
55
64
59
49
43
34
39
50
58
73
97
109
123
124
115
112
111
110
92
69
51
40
40
34
26
17
16
25
48
63
73
67
48
50
57
55
35
13
-4
-14
-22
-43
-60
-65
-53
-42
-26
-35
-41
-32
-13
-9
-46
-86
-104
-89
-64
-64
-68
-72
-56
-31
-8
6
42
73
97
120
119
121
125
130
122
99
80
64
59
53
44
35
34
38
60
79
90
89
70
65
70
71
56
28
11
-2
-13
-27
-42
-54
-35
-24
-5
-8
-17
-13
-1
11
0
-19
-41
-55
-52
-73
-86
-99
-107
-106
-102
-104
-86
-69
-62
-47
-51
-47
-38
-22
-11
-15
-18
-16
-4
8
16
18
25
35
53
76
83
74
32
9
34
60
73
55
44
38
27
-2
-45
-83
-90
-97
-98
-118
-146
-160
-160
-156
-174
-196
-218
-228
-215
-218
-218
-216
-212
-203
-190
-180
-153
-129
-112
-92
-89
-81
-68
-52
-40
-49
-56
-57
-56
-51
-53
-56
-49
-36
-8
24
42
59
50
50
71
84
85
69
62
57
56
42
28
15
30
36
54
54
42
46
57
72
65
56
44
36
51
39
34
28
28
34
41
42
60
71
78
83
70
60
53
50
36
13
-12
-32
-44
-54
-69
-84
-90
-96
-83
-66
-62
-59
-83
-90
-85
-90
-105
-128
-146
-166
-185
-205
-221
-222
-201
-184
-152
-137
-128
-111
-84
-62
-61
-52
-59
-55
-46
-52
-53
-52
-46
-31
-22
-10
21
38
57
69
62
70
73
79
75
60
50
44
45
48
42
46
56
70
107
133
151
156
149
166
182
192
183
173
167
166
154
142
126
128
136
144
155
140
130
126
132
121
100
79
50
43
28
5
-12
-27
-36
-35
-43
-38
-21
-18
-2
-1
-5
1
9
18
11
1
-7
-9
-7
-6
-15
-13
-12
-1
24
35
43
29
9
14
10
-3
-35
-65
-93
-114
-142
-170
-197
-198
-198
-184
-176
-182
-176
-160
-136
-129
-127
-123
-118
-91
-82
-79
-70
-60
-42
-20
-12
16
42
56
74
74
70
72
72
67
39
16
-9
-29
-42
-62
-76
-82
-85
-68
-44
-27
-8
-12
-1
33
66
94
109
136
167
196
225
262
302
349
372
395
396
405
433
477
548
621
677
701
724
754
772
777
723
580
366
104
-178
-437
-705
-952
-1180
-1369
-1476
-1518
-1500
-1457
-1392
-1289
-1157
-999
-834
-681
-539
-413
-301
-177
-66
32
105
156
224
282
328
346
358
370
384
389
391
389
411
436
466
495
505
518
533
553
555
543
529
499
490
467
436
411
389
368
357
335
326
323
303
296
272
246
230
216
204
175
152
132
113
97
77
54
40
24
20
28
21
15
-17
-47
-59
-77
-104
-147
-179
-204
-224
-246
-266
-272
-259
-250
-225
-219
-208
-187
-163
-138
-130
-112
-103
-81
-51
-36
-11
13
40
75
108
139
184
213
232
241
237
230
213
195
149
97
40
-22
-83
-146
-216
-275
-322
-364
-371
-374
-326
-406
-582
-534
-395
-293
-299
-304
-256
-170
-105
-72
-39
19
78
134
184
205
227
241
255
250
232
208
178
167
138
104
71
43
17
2
-20
-24
-22
-32
-32
-50
-60
-67
-67
-74
-102
-117
-137
-147
-153
-163
-175
-174
-173
-154
-130
-119
-109
-118
-118
-98
-85
-80
-82
-78
-67
-55
-46
-35
-12
22
53
92
106
124
139
158
166
153
146
123
120
113
88
71
59
53
57
59
58
75
79
86
80
64
53
44
41
13
-12
-29
-43
-52
-61
-70
-73
-72
-61
-35
-22
-15
-24
-44
-38
-38
-41
-61
-72
-83
-87
-94
-99
-98
-78
-62
-34
-18
-11
3
23
43
41
41
34
34
47
40
37
38
48
60
78
90
121
142
164
180
178
175
172
175
162
140
121
103
93
83
65
54
49
47
63
70
70
57
33
29
31
25
9
-8
-22
-28
-41
-54
-62
-50
-40
-26
-12
-14
-3
4
18
13
-1
-17
-35
-35
-55
-76
-95
-109
-119
-121
-130
-125
-117
-120
-120
-138
-150
-166
-165
-175
-206
-222
-238
-246
-252
-262
-263
-252
-241
-204
-167
-138
-120
-119
-96
-66
-40
-29
-24
-20
-8
-4
2
8
34
58
85
111
119
136
145
162
156
144
131
112
115
94
76
58
46
34
32
25
35
43
46
47
34
32
21
24
17
-4
-24
-39
-49
-53
-66
-74
-75
-72
-47
-26
-8
-9
-20
-12
-1
9
1
-11
-20
-24
-34
-45
-52
-38
-32
-23
-12
-16
-9
-5
6
-3
-14
-27
-37
-31
-42
-51
-59
-60
-54
-43
-45
-25
-17
-9
-5
-21
-29
-41
-40
-50
-70
-87
-103
-109
-112
-115
-110
-94
-75
-39
-9
15
26
17
28
38
50
35
17
-2
-19
-46
-70
-90
-89
-94
-90
-84
-94
-84
-74
-58
-64
-65
-68
-72
-57
-60
-67
-71
-72
-67
-56
-51
-30
-15
1
11
9
20
23
41
44
36
32
34
42
50
53
59
70
87
122
149
168
169
161
173
180
186
173
159
146
136
115
97
84
90
87
90
87
72
74
71
70
50
35
14
-1
-1
-22
-39
-56
-61
-60
-57
-54
-36
-26
-9
-5
-6
-1
-3
10
7
-6
-16
-27
-34
-38
-47
-53
-55
-51
-26
-9
6
2
-6
10
21
33
29
24
20
18
8
3
5
26
40
62
76
85
104
120
136
133
128
114
108
110
95
81
67
61
59
62
58
73
76
88
84
77
78
72
81
70
58
48
38
36
33
24
24
26
37
61
80
93
83
76
88
95
100
86
77
71
69
57
52
53
72
82
101
107
109
118
125
131
111
98
70
57
43
15
-9
-38
-53
-64
-75
-81
-72
-73
-68
-73
-84
-81
-87
-79
-90
-103
-113
-120
-123
-126
-132
-131
-132
-119
-92
-79
-69
-81
-89
-79
-72
-71
-88
-100
-113
-120
-136
-145
-145
-132
-128
-116
-122
-128
-128
-127
-135
-161
-177
-205
-214
-221
-244
-257
-271
-271
-260
-249
-230
-196
-171
-135
-119
-103
-83
-63
-35
-30
-27
-24
-18
-11
-4
-3
4
8
27
54
71
78
62
58
66
76
77
64
58
52
48
40
33
36
54
61
77
71
69
71
71
68
42
26
0
-13
-25
-44
-57
-68
-66
-60
-52
-41
-17
-5
11
10
8
7
4
11
-4
-16
-32
-39
-42
-46
-54
-52
-51
-34
-10
6
18
5
1
12
23
22
11
5
1
1
-6
-4
8
34
53
81
90
100
115
128
136
122
121
103
106
104
93
85
83
85
94
95
105
121
123
134
118
110
103
97
99
79
65
51
41
37
33
20
26
26
44
66
80
91
71
69
75
79
71
53
39
27
13
-7
-20
-16
-4
6
21
20
28
36
51
55
41
37
21
27
21
10
1
-6
-6
1
0
10
23
24
31
17
10
5
-2
2
-18
-33
-48
-56
-59
-63
-69
-67
-65
-47
-25
-8
0
-16
-18
-12
-4
-5
-18
-27
-32
-36
-46
-46
-33
-9
6
35
42
57
74
94
106
101
104
92
99
95
85
73
60
57
58
57
60
74
73
80
66
58
46
38
37
14
-7
-26
-42
-51
-64
-80
-84
-93
-84
-72
-67
-69
-92
-103
-98
-94
-97
-113
-122
-125
-128
-139
-141
-133
-107
-91
-64
-52
-33
-11
11
31
23
23
9
10
5
-14
-36
-58
-71
-80
-91
-93
-84
-86
-78
-89
-93
-96
-96
-83
-91
-101
-108
-115
-114
-114
-120
-119
-118
-105
-83
-67
-60
-74
-85
-79
-73
-72
-88
-95
-101
-105
-115
-124
-123
-105
-96
-77
-72
-67
-55
-39
-19
-21
-12
-13
-2
17
18
23
30
41
55
72
86
117
128
145
148
140
139
124
125
101
71
40
13
-12
-36
-62
-81
-94
-94
-77
-64
-50
-53
-57
-40
-21
-8
-11
-9
-10
-6
-11
-19
-18
1
9
23
26
19
26
31
39
23
10
-6
-19
-11
-25
-34
-43
-40
-33
-16
-8
25
45
71
89
92
106
108
125
126
113
107
100
97
98
94
95
102
112
138
162
179
181
170
174
180
181
166
147
128
116
91
71
58
63
71
80
91
83
92
98
116
111
101
93
80
88
77
62
44
39
33
35
26
35
39
39
42
23
16
1
-1
-7
-25
-40
-50
-54
-53
-52
-49
-35
-24
7
38
60
74
65
66
79
87
77
59
43
28
8
-15
-34
-35
-33
-36
-31
-45
-45
-48
-42
-52
-74
-89
-118
-121
-135
-159
-178
-192
-200
-200
-204
-195
-181
-177
-165
-172
-170
-173
-171
-161
-173
-179
-183
-188
-187
-188
-192
-184
-180
-157
-133
-113
-105
-117
-119
-110
-100
-103
-115
-121
-128
-130
-142
-147
-135
-115
-101
-75
-70
-58
-42
-26
-16
-28
-27
-39
-31
-30
-36
-41
-42
-37
-21
-11
6
32
46
66
60
67
65
69
79
68
61
54
51
54
55
54
61
70
92
118
137
144
130
133
138
147
143
132
122
119
110
95
91
99
113
120
138
133
137
138
148
141
121
109
90
89
80
67
58
55
57
67
75
93
111
125
142
130
131
121
118
117
97
82
65
57
51
47
46
57
66
99
128
153
161
156
165
172
180
170
155
136
120
97
76
58
58
56
59
59
49
48
47
51
33
17
-4
-28
-32
-56
-75
-99
-114
-122
-127
-134
-122
-118
-108
-104
-121
-117
-128
-117
-122
-138
-153
-169
-175
-176
-183
-182
-178
-170
-143
-121
-104
-111
-119
-107
-102
-90
-96
-99
-104
-104
-111
-111
-104
-80
-71
-56
-56
-63
-64
-64
-72
-98
-115
-141
-150
-153
-169
-174
-178
-175
-160
-143
-126
-95
-73
-46
-39
-34
-23
-16
1
-3
-5
-10
-15
-16
-14
-14
-8
-4
18
47
71
85
77
82
98
111
122
119
116
115
111
99
92
99
110
116
125
112
109
107
107
97
72
52
22
18
1
-16
-28
-39
-37
-31
-23
-4
17
34
52
46
49
46
45
48
29
14
-4
-20
-33
-40
-50
-52
-54
-38
-21
-11
-13
-32
-36
-36
-32
-37
-48
-57
-58
-60
-61
-55
-29
-1
28
56
65
85
104
124
123
114
107
88
92
74
60
51
42
44
53
61
85
102
118
129
119
124
111
115
99
72
55
34
9
-5
-20
-35
-42
-45
-25
-15
-1
-5
-19
-10
-6
3
-4
-12
-21
-21
-32
-41
-41
-25
-17
4
13
8
16
21
29
18
7
-11
-22
-23
-38
-50
-60
-63
-59
-49
-42
-14
0
22
30
25
33
29
41
32
22
9
-6
-20
-28
-38
-43
-42
-37
-16
-3
5
-11
-24
-25
-27
-34
-53
-73
-89
-104
-126
-137
-133
-117
-103
-79
-72
-64
-45
-24
-9
-15
-16
-27
-25
-24
-37
-41
-48
-48
-41
-36
-24
-4
7
22
13
11
6
1
3
-19
-39
-60
-80
-97
-107
-119
-125
-127
-110
-91
-75
-67
-82
-77
-70
-61
-56
-62
-68
-68
-71
-81
-77
-61
-40
-19
0
3
16
32
48
43
38
33
19
29
16
6
0
-8
-11
-9
-8
6
12
20
23
9
10
4
14
17
10
11
9
12
22
30
43
57
76
109
132
154
149
140
146
144
145
132
112
94
76
50
28
15
21
19
31
32
31
41
55
64
55
60
49
49
55
43
37
28
23
27
25
28
41
43
50
37
22
11
-3
1
-18
-35
-53
-68
-80
-89
-92
-93
-95
-81
-60
-46
-34
-49
-49
-39
-31
-27
-33
-39
-44
-48
-61
-64
-54
-36
-23
-1
1
10
24
39
44
36
37
25
35
32
28
29
30
34
49
59
85
106
125
145
141
149
144
154
159
144
135
117
100
82
69
50
42
25
34
32
29
14
-20
-36
-51
-62
-86
-115
-144
-169
-201
-233
-257
-258
-262
-261
-263
-275
-273
-269
-258
-265
-269
-274
-278
-262
-266
-264
-261
-259
-245
-229
-219
-185
-162
-135
-115
-116
-96
-90
-63
-45
-43
-37
-27
-24
-9
1
14
27
40
72
90
105
98
82
84
84
81
62
43
26
16
-7
-25
-30
-23
-17
-2
-1
-3
6
14
24
13
8
-5
-5
-1
-7
-6
-8
-1
13
25
42
69
87
107
107
102
102
93
101
93
78
66
55
46
45
42
47
51
68
94
115
131
123
125
134
145
147
140
132
122
113
95
83
80
87
88
98
88
86
87
92
88
73
67
47
51
45
32
22
13
12
17
15
22
33
34
40
18
9
-6
-16
-19
-42
-56
-73
-86
-92
-100
-106
-105
-105
-87
-70
-57
-54
-73
-73
-66
-57
-58
-62
-65
-63
-60
-60
-50
-22
3
25
38
37
63
95
124
126
116
107
95
99
84
63
49
39
35
36
28
35
41
45
47
28
23
9
10
6
-12
-24
-36
-43
-44
-42
-41
-32
-24
3
28
46
48
41
53
63
71
67
62
51
48
33
19
13
26
31
45
44
33
37
42
52
37
17
-16
-35
-31
-44
-49
-69
-84
-85
-75
-70
-43
-25
-21
-19
-13
-9
-6
-2
-16
-24
-35
-31
-27
-24
-27
-26
-10
18
39
66
74
79
91
83
88
87
80
69
50
31
14
-5
4
3
-5
-17
-38
-31
-7
2
-7
-19
-42
-39
-20
-14
-24
-43
-61
-60
-29
-21
-23
-38
-44
-32
-21
-5
-12
-20
-34
-37
-34
-36
-51
-65
-83
-109
-132
-154
-159
-171
-179
-182
-190
-185
-169
-156
-143
-124
-103
-75
-57
-52
-55
-52
-36
-18
-12
-21
-43
-61
-60
-60
-65
-78
-94
-101
-96
-91
-83
-73
-63
-35
-5
22
49
73
91
108
127
138
145
140
130
118
102
79
56
35
7
-18
-48
-77
-107
-135
-152
-162
-168
-169
-170
-168
-161
-146
-126
-102
-84
-67
-46
-28
-4
16
26
36
43
53
64
72
66
61
58
55
56
52
43
29
14
6
-3
-11
-27
-45
-56
-61
-59
-58
-64
-65
-62
-49
-35
-23
-14
-12
-7
4
12
16
17
18
17
18
19
10
-2
-15
-32
-45
-62
-80
-95
-108
-119
-128
-135
-137
-130
-124
-117
-111
-101
-89
-74
-61
-49
-38
-25
-12
3
11
16
20
20
23
18
8
-8
-21
-32
-48
-63
-81
-95
-99
-85
-54
-2
65
146
241
337
438
532
613
676
722
753
766
767
749
719
679
634
583
529
469
399
334
276
221
172
126
80
39
8
-20
-44
-68
-93
-114
-134
-156
-176
-198
-223
-256
-288
-326
-361
-395
-424
-442
-454
-463
-467
-470
-468
-460
-446
-440
-443
-450
-453
-459
-473
-493
-522
-546
-564
-578
-587
-602
-624
-629
-620
-592
-553
-515
-468
-412
-334
-231
-116
-5
94
186
271
342
404
451
481
504
519
528
532
530
525
514
509
510
517
527
544
562
587
614
647
672
695
710
721
728
729
718
692
651
601
545
485
413
330
238
141
49
-43
-132
-218
-294
-355
-404
-437
-453
-462
-456
-438
-408
-372
-331
-286
-245
-209
-171
-141
-106
-79
-63
-54
-52
-55
-62
-73
-90
-116
-147
-176
-208
-243
-275
-307
-336
-359
-374
-384
-383
-375
-359
-335
-303
-264
-220
-171
-118
-65
-9
43
90
138
178
215
247
274
298
318
337
355
370
386
404
418
427
438
448
451
452
449
444
433
413
392
365
333
300
265
228
191
153
115
72
34
7
-23
-44
-65
-82
-93
-104
-113
-116
-115
-117
-119
-120
-124
-131
-135
-140
-145
-147
-152
-153
-152
-154
-154
-152
-152
-158
-165
-168
-175
-178
-182
-190
-194
-199
-202
-204
-202
-200
-196
-187
-176
-163
-153
-153
-148
-122
-89
-48
-15
15
39
62
86
109
130
147
161
171
177
178
181
181
180
179
178
179
175
171
167
161
156
146
135
124
113
100
85
71
58
49
41
34
33
30
31
32
36
39
44
49
54
59
62
62
65
65
68
65
63
60
55
48
44
36
27
19
11
-1
-11
-21
-31
-36
-43
-50
-55
-60
-63
-65
-68
-70
-72
-76
-79
-83
-84
-85
-85
-84
-81
-76
-69
-65
-53
-44
-37
-30
-21
-12
-6
-1
5
13
16
18
20
21
21
20
22
25
29
34
42
49
59
63
68
75
78
79
75
70
64
57
45
38
27
18
11
7
1
2
4
6
9
12
16
21
21
22
18
13
7
1
-4
-15
-20
-28
-36
-46
-55
-65
-76
-87
-100
-110
-122
-131
-140
-145
-148
-149
-148
-145
-138
-129
-122
-115
-104
-92
-86
-77
-72
-63
-59
-56
-52
-51
-48
-46
-49
-51
-56
-59
-58
-64
-59
-59
-58
-59
-59
-63
-71
-78
-90
-105
-119
-134
-151
-168
-182
-191
-195
-199
-196
-186
-177
-161
-145
-128
-107
-92
-75
-57
-42
-31
-22
-14
-7
-1
2
8
13
22
29
35
46
50
56
61
63
65
65
64
62
63
61
57
53
49
42
43
41
42
44
45
52
60
67
74
82
88
91
95
96
96
97
91
87
84
80
76
76
75
79
83
88
95
102
109
115
124
134
138
140
144
148
151
159
168
177
181
187
192
200
200
201
197
190
184
175
169
153
145
134
126
120
112
109
107
103
105
105
106
111
118
119
119
118
116
115
109
104
99
90
83
75
68
63
56
50
46
40
36
29
21
14
8
3
-5
-13
-23
-31
-40
-51
-63
-74
-83
-92
-100
-109
-115
-124
-130
-136
-140
-142
-143
-144
-140
-134
-126
-117
-113
-105
-99
-92
-88
-86
-87
-87
-89
-90
-89
-88
-89
-86
-81
-77
-69
-63
-53
-47
-35
-25
-11
-1
9
19
26
35
41
49
52
54
56
53
51
47
42
34
24
15
5
-4
-15
-20
-26
-29
-29
-32
-26
-22
-14
-6
0
11
20
28
32
36
41
40
42
39
35
35
29
22
17
9
1
-5
-8
-18
-24
-28
-33
-36
-42
-45
-46
-51
-58
-66
-73
-83
-92
-107
-119
-132
-147
-159
-170
-181
-188
-194
-195
-194
-189
-183
-176
-163
-150
-134
-117
-103
-87
-73
-60
-52
-43
-39
-34
-32
-29
-24
-19
-16
-9
-3
1
7
17
25
32
42
43
47
45
43
35
23
10
-6
-17
-32
-50
-63
-73
-83
-93
-97
-102
-103
-100
-101
-94
-86
-77
-64
-51
-38
-23
-9
8
26
38
49
62
68
74
78
80
81
78
77
72
68
65
61
55
48
43
35
32
26
22
18
20
20
24
28
35
40
45
49
54
60
63
66
68
69
66
64
59
54
49
43
39
32
27
22
14
5
-7
-16
-27
-35
-45
-54
-66
-73
-76
-84
-85
-84
-80
-74
-67
-54
-41
-27
-12
4
18
33
41
49
57
62
69
73
72
77
81
85
88
90
96
95
99
101
101
105
104
105
103
100
96
91
86
79
75
68
64
57
53
50
44
43
40
37
34
32
29
27
22
16
7
2
-3
-10
-14
-15
-14
-11
-4
5
16
28
41
56
74
99
129
161
197
231
262
288
305
312
317
319
327
338
363
419
486
530
533
530
543
587
631
617
512
334
116
-119
-369
-628
-890
-1126
-1309
-1432
-1501
-1526
-1508
-1455
-1363
-1244
-1108
-971
-840
-719
-616
-515
-420
-331
-249
-173
-101
-35
20
72
124
178
234
290
343
394
441
481
519
554
586
610
635
647
651
646
630
610
582
553
518
481
444
403
366
324
284
244
210
178
152
131
111
97
87
80
76
73
70
67
61
51
34
9
-24
-63
-105
-151
-201
-253
-303
-348
-390
-426
-459
-486
-503
-517
-525
-530
-531
-527
-518
-509
-491
-470
-448
-423
-398
-371
-344
-315
-286
-259
-230
-205
-182
-157
-136
-118
-101
-86
-74
-65
-56
-50
-45
-41
-38
-38
-39
-36
-40
-42
-43
-42
-42
-37
-34
-30
-20
-10
4
20
38
59
84
108
135
162
189
216
246
271
296
320
338
356
367
376
380
381
378
376
370
362
352
340
331
320
313
302
290
276
262
252
236
218
203
184
167
145
123
101
77
52
32
9
-14
-31
-48
-66
-84
-100
-110
-120
-130
-135
-137
-140
-140
-136
-135
-128
-124
-116
-106
-98
-86
-77
-68
-59
-49
-39
-31
-23
-17
-10
-7
-5
-4
-4
-4
-9
-12
-16
-17
-19
-19
-19
-17
-13
-9
-4
1
7
14
20
21
25
30
33
39
44
45
45
46
46
43
41
40
40
38
38
40
40
43
46
51
54
57
61
62
60
62
59
60
60
58
60
57
53
51
49
46
40
36
27
18
8
-6
-19
-32
-48
-62
-77
-89
-103
-114
-125
-136
-140
-147
-152
-155
-158
-162
-162
-160
-157
-156
-153
-150
-146
-145
-142
-137
-131
-125
-120
-111
-105
-94
-86
-76
-65
-54
-45
-35
-24
-14
-8
3
9
12
15
17
15
12
6
2
-5
-15
-24
-33
-40
-47
-52
-54
-56
-56
-55
-58
-58
-56
-54
-49
-48
-46
-46
-42
-44
-42
-42
-47
-49
-54
-61
-68
-79
-88
-100
-109
-116
-121
-122
-124
-116
-111
-101
-90
-81
-67
-57
-47
-38
-31
-21
-13
-4
7
15
25
33
40
42
46
46
41
32
22
13
6
-3
-14
-19
-25
-31
-34
-33
-33
-31
-29
-27
-21
-18
-12
-6
-2
3
9
15
18
24
26
28
30
34
39
39
46
48
54
59
62
65
66
72
78
77
82
86
85
86
87
88
85
85
84
82
84
82
78
79
80
79
78
73
70
63
53
44
27
10
-10
-31
-48
-70
-88
-103
-118
-130
-143
-152
-162
-165
-166
-168
-165
-161
-156
-149
-142
-133
-125
-115
-109
-102
-93
-86
-82
-78
-71
-68
-66
-62
-59
-54
-52
-49
-37
-22
-7
9
25
44
60
77
91
104
115
123
126
127
129
127
124
125
127
130
131
132
136
135
134
135
141
148
154
166
176
186
197
203
208
213
213
211
208
199
191
184
174
164
158
148
141
132
122
110
100
88
76
66
53
43
32
21
17
11
8
5
2
3
6
9
16
24
27
33
36
38
38
38
32
23
15
4
-10
-24
-38
-50
-60
-70
-81
-89
-94
-98
-101
-100
-97
-91
-85
-76
-63
-48
-36
-18
-4
9
24
34
47
59
72
84
96
108
114
125
131
136
142
147
148
149
145
131
119
104
89
70
49
25
3
-19
-38
-55
-68
-76
-84
-87
-87
-91
-89
-87
-82
-75
-71
-64
-61
-57
-52
-46
-43
-41
-39
-42
-42
-42
-41
-39
-37
-38
-35
-34
-36
-35
-32
-30
-30
-29
-26
-26
-24
-24
-25
-32
-41
-51
-67
-86
-106
-127
-148
-168
-186
-202
-217
-228
-234
-237
-239
-238
-233
-229
-221
-214
-206
-196
-191
-185
-181
-177
-173
-171
-169
-169
-171
-169
-174
-175
-171
-168
-160
-152
-142
-131
-115
-100
-83
-72
-61
-52
-46
-38
-35
-31
-29
-24
-19
-16
-8
-7
2
8
14
20
26
31
35
40
42
43
44
45
41
37
35
33
32
31
30
31
33
35
39
45
50
52
54
57
55
54
50
45
38
32
28
24
23
23
26
28
35
44
53
62
72
80
89
94
97
97
94
89
81
71
59
49
37
27
19
11
6
-1
-4
-9
-16
-21
-29
-36
-42
-51
-55
-60
-61
-58
-54
-47
-40
-29
-22
-18
-13
-7
-6
-3
-1
2
6
9
15
22
28
34
38
45
48
51
52
49
44
38
33
28
25
23
18
14
14
11
12
6
5
4
1
-2
-5
-3
-6
-7
-8
-10
-10
-8
-10
-9
-7
-5
-6
-3
-1
5
12
17
24
32
41
50
58
66
75
82
87
94
97
101
104
104
107
107
102
98
91
85
78
71
64
59
54
50
46
42
38
33
26
19
12
5
0
-8
-15
-24
-27
-30
-35
-34
-36
-41
-43
-41
-41
-38
-34
-32
-29
-27
-22
-16
-10
0
4
14
21
26
35
42
48
55
62
68
74
76
77
82
84
86
89
91
95
96
97
98
98
96
97
96
94
91
87
83
79
79
76
75
74
73
71
68
67
65
63
62
59
53
48
39
32
21
11
1
-9
-15
-21
-23
-24
-24
-20
-14
-7
1
9
17
25
29
32
33
32
28
21
10
-3
-14
-30
-45
-64
-81
-101
-120
-137
-152
-165
-175
-184
-187
-188
-184
-178
-170
-158
-146
-130
-115
-98
-84
-72
-58
-47
-38
-26
-15
-9
1
8
16
21
26
31
39
47
56
64
72
80
87
94
99
105
104
104
104
103
99
94
88
83
76
71
64
60
57
55
54
53
53
51
51
50
48
44
40
38
35
32
27
22
16
12
7
1
-7
-9
-11
-13
-13
-10
-8
-4
0
3
8
11
13
12
10
5
-4
-12
-25
-37
-51
-62
-73
-84
-91
-101
-107
-112
-116
-120
-122
-123
-123
-119
-116
-110
-103
-97
-90
-82
-75
-66
-58
-52
-46
-40
-35
-27
-25
-23
-25
-30
-29
-29
-29
-26
-31
-39
-62
-77
-73
-42
-7
15
13
3
-6
-8
-3
-4
-10
-18
-22
-24
-31
-36
-40
-45
-45
-49
-53
-53
-56
-60
-61
-63
-66
-67
-68
-71
-68
-65
-61
-56
-50
-44
-38
-33
-26
-19
-11
-8
-3
3
10
16
22
28
37
47
57
66
74
72
53
31
31
45
71
87
94
101
108
120
131
138
146
149
148
147
138
127
113
104
94
85
76
68
58
48
43
39
32
28
21
12
4
-4
-16
-24
-33
-42
-49
-57
-64
-72
-77
-83
-89
-92
-94
-95
-95
-92
-87
-82
-73
-64
-54
-41
-30
-18
-3
14
32
51
69
87
101
113
118
121
124
123
116
100
83
65
51
39
28
16
5
-2
-5
-5
-8
-10
-9
-12
-12
-6
-4
-3
-4
-3
-5
-10
-16
-25
-32
-33
-32
-31
-38
-46
-53
-53
-53
-55
-68
-99
-131
-139
-126
-110
-84
-55
-17
19
48
82
126
176
215
230
226
210
184
155
115
70
17
-37
-94
-153
-208
-263
-307
-346
-371
-390
-401
-408
-409
-406
-402
-397
-390
-385
-377
-367
-361
-352
-344
-338
-332
-328
-324
-318
-315
-310
-308
-310
-302
-292
-282
-268
-253
-239
-225
-210
-191
-173
-150
-130
-113
-93
-72
-50
-28
-6
15
35
57
77
96
116
140
163
183
202
221
239
255
272
288
304
313
325
330
334
341
349
352
353
348
346
338
328
317
302
293
282
271
260
245
228
210
193
172
156
140
123
106
89
74
57
42
28
15
5
-4
-15
-24
-33
-42
-45
-50
-54
-52
-53
-54
-51
-55
-56
-56
-56
-55
-55
-56
-57
-57
-58
-60
-61
-58
-56
-50
-44
-38
-35
-25
-18
-11
-3
2
6
7
6
3
-5
-15
-23
-37
-47
-58
-66
-74
-77
-82
-83
-83
-80
-76
-76
-74
-70
-67
-58
-50
-34
-24
-16
-7
4
10
19
26
31
34
35
37
40
42
42
43
40
43
43
46
45
47
50
50
55
53
54
51
48
46
43
39
34
26
22
18
13
4
-7
-21
-38
-54
-66
-65
-60
-50
-41
-35
-23
-11
-3
7
14
20
29
34
36
35
33
30
26
21
18
14
9
7
3
-1
0
0
-6
-7
-11
-12
-13
-14
-12
-12
-9
-5
-2
3
7
9
6
-1
-16
-30
-38
-35
-25
-19
-19
-18
-15
-13
-14
-16
-20
-22
-24
-29
-35
-41
-49
-56
-59
-62
-65
-68
-70
-75
-78
-83
-86
-85
-85
-88
-90
-91
-92
-90
-89
-85
-78
-67
-54
-43
-28
-10
12
26
38
51
68
83
103
121
135
147
159
171
184
193
202
205
203
202
197
187
174
163
149
133
115
102
83
65
48
30
14
0
-18
-34
-49
-65
-79
-90
-101
-110
-119
-124
-130
-133
-133
-133
-133
-131
-127
-123
-118
-110
-105
-97
-89
-80
-75
-66
-62
-58
-55
-55
-51
-55
-52
-44
-39
-38
-33
-30
-23
-16
-18
-18
-18
-16
-20
-32
-40
-50
-61
-77
-90
-103
-109
-112
-115
-114
-110
-101
-90
-83
-75
-67
-55
-41
-33
-21
-8
5
22
35
48
58
71
82
90
99
105
109
117
123
125
129
129
128
127
123
118
114
110
108
105
102
97
95
94
93
93
89
86
84
81
77
71
64
54
47
39
30
19
7
-2
-11
-17
-23
-31
-35
-38
-37
-37
-38
-39
-36
-38
-38
-40
-43
-47
-49
-52
-58
-64
-70
-73
-80
-82
-86
-89
-91
-90
-88
-86
-85
-82
-83
-81
-80
-77
-75
-76
-77
-78
-83
-84
-87
-88
-82
-78
-73
-65
-53
-43
-29
-20
-6
4
11
19
22
27
27
22
21
14
7
0
-8
-16
-23
-26
-30
-30
-32
-32
-24
-19
-13
-6
0
8
15
23
30
36
44
50
55
61
70
77
82
85
89
95
99
102
109
114
116
120
124
127
131
133
139
142
144
145
144
142
139
136
129
119
109
99
86
75
64
51
38
25
12
-4
-17
-33
-45
-58
-66
-73
-77
-81
-81
-78
-76
-69
-61
-53
-44
-35
-26
-16
-5
10
20
30
39
48
56
62
63
65
63
59
59
57
57
60
60
62
67
72
76
82
85
86
86
88
86
84
81
75
73
69
67
64
58
55
53
53
52
50
50
49
47
47
50
46
44
43
39
40
37
33
30
26
19
13
9
4
-3
-7
-13
-18
-24
-32
-35
-42
-48
-59
-68
-79
-89
-99
-108
-122
-131
-140
-149
-154
-161
-164
-166
-167
-167
-164
-161
-155
-150
-144
-136
-131
-123
-116
-112
-105
-102
-102
-100
-102
-105
-110
-115
-121
-126
-133
-137
-144
-149
-154
-160
-163
-162
-162
-162
-157
-152
-147
-137
-127
-119
-109
-95
-85
-71
-57
-47
-31
-19
-4
8
21
34
45
56
67
71
77
81
83
83
86
84
83
82
81
79
75
67
59
51
39
30
19
9
0
-10
-17
-25
-30
-32
-34
-34
-36
-33
-32
-25
-15
-6
6
17
33
43
58
71
85
95
106
117
124
132
138
143
145
145
146
142
139
134
127
120
112
103
93
82
71
59
45
32
18
4
-12
-28
-45
-61
-75
-90
-103
-113
-124
-129
-133
-135
-136
-135
-132
-128
-120
-113
-105
-95
-82
-69
-53
-38
-19
0
19
35
51
66
77
88
97
103
107
109
113
111
111
106
103
97
93
87
78
69
58
45
33
23
8
-6
-20
-33
-47
-57
-68
-76
-84
-90
-91
-89
-84
-78
-67
-55
-44
-32
-21
-9
4
17
26
36
49
60
72
84
97
109
122
134
141
151
159
164
171
170
170
169
166
162
155
148
140
129
118
109
100
89
79
72
64
58
53
50
44
46
45
43
41
36
34
29
22
15
7
-2
-8
-19
-26
-33
-42
-53
-64
-69
-78
-87
-98
-111
-116
-119
-124
-128
-129
-130
-131
-132
-136
-136
-136
-138
-139
-141
-144
-137
-127
-124
-122
-118
-111
-103
-99
-100
-97
-93
-84
-74
-66
-56
-47
-40
-32
-29
-29
-27
-24
-20
-22
-29
-40
-52
-65
-74
-81
-91
-101
-111
-118
-127
-132
-136
-141
-142
-141
-140
-137
-130
-123
-117
-107
-96
-85
-71
-57
-42
-26
-11
3
18
33
46
57
70
78
88
97
104
109
114
117
123
126
127
128
132
132
133
132
126
120
110
97
81
63
44
26
5
-13
-27
-39
-48
-56
-62
-71
-79
-86
-95
-100
-107
-110
-116
-119
-122
-122
-111
-94
-58
-3
68
150
240
335
431
524
606
675
730
773
798
809
809
795
771
739
696
651
595
538
474
407
340
274
209
144
80
16
-47
-104
-160
-212
-262
-307
-349
-390
-428
-466
-500
-534
-565
-594
-623
-649
-668
-678
-681
-676
-663
-645
-621
-592
-556
-522
-490
-459
-433
-417
-399
-395
-397
-395
-397
-408
-421
-438
-448
-449
-441
-429
-408
-378
-336
-279
-218
-163
-106
-29
50
126
193
257
322
392
454
497
531
559
579
591
597
597
608
610
610
605
601
606
615
627
631
634
631
629
628
617
603
581
558
528
491
453
402
356
306
256
209
163
119
75
34
-5
-41
-80
-119
-156
-194
-232
-267
-297
-323
-344
-361
-370
-374
-371
-369
-361
-351
-336
-319
-300
-286
-270
-248
-234
-219
-202
-190
-176
-164
-150
-137
-128
-117
-107
-96
-84
-70
-58
-45
-31
-14
7
29
53
79
107
141
171
204
236
265
292
317
340
356
369
378
368
357
355
364
378
392
403
411
421
432
445
449
447
452
454
451
443
429
413
394
376
357
332
307
282
255
228
199
173
145
117
88
57
29
2
-25
-54
-84
-110
-136
-159
-181
-201
-223
-245
-266
-283
-298
-315
-326
-337
-341
-343
-336
-326
-315
-302
-289
-276
-259
-247
-233
-216
-202
-188
-172
-158
-146
-132
-120
-111
-104
-99
-92
-90
-89
-89
-88
-84
-82
-82
-79
-77
-72
-68
-64
-59
-51
-46
-40
-31
-24
-17
-9
-4
1
5
12
15
20
22
22
23
22
19
14
5
-4
-10
-15
-21
-28
-33
-39
-40
-40
-43
-40
-42
-40
-41
-42
-41
-45
-45
-45
-48
-56
-62
-71
-78
-85
-97
-103
-109
-114
-122
-129
-134
-140
-142
-145
-149
-149
-150
-148
-149
-146
-139
-138
-134
-127
-119
-111
-103
-95
-88
-82
-77
-71
-66
-59
-55
-52
-50
-51
-51
-53
-50
-53
-53
-55
-58
-61
-62
-67
-82
-108
-127
-121
-95
-71
-71
-87
-108
-116
-119
-121
-128
-141
-150
-151
-146
-146
-145
-147
-143
-124
-95
-62
-33
-7
20
46
68
89
104
119
131
141
147
152
154
155
155
158
160
163
166
166
169
173
174
174
174
176
176
178
180
183
182
188
188
191
194
194
194
189
185
181
175
164
155
147
138
128
118
108
102
92
82
72
63
58
55
58
57
55
58
58
60
58
58
57
58
59
60
58
55
49
43
34
22
6
-10
-30
-44
-58
-73
-85
-95
-104
-115
-118
-124
-130
-133
-139
-139
-139
-137
-125
-110
-95
-83
-66
-50
-30
-21
-16
-16
-12
-7
-5
-5
-10
-12
-17
-21
-29
-37
-37
-43
-43
-43
-37
-32
-22
-13
-3
9
20
34
44
51
60
67
73
72
70
63
55
43
30
18
8
-2
-10
-20
-30
-40
-50
-63
-75
-88
-98
-108
-120
-123
-124
-123
-124
-124
-115
-94
-73
-66
-67
-70
-72
-73
-80
-98
-120
-146
-169
-196
-223
-251
-278
-298
-310
-323
-328
-329
-325
-318
-303
-285
-263
-243
-208
-190
-167
-144
-124
-104
-83
-67
-50
-34
-17
-1
13
25
36
44
50
57
62
68
74
79
83
84
82
84
81
80
79
77
74
71
67
67
66
65
62
63
59
60
61
62
63
69
68
73
79
80
87
88
90
90
89
93
93
93
87
86
85
87
91
95
95
97
102
100
101
98
94
89
77
70
56
41
23
5
-13
-31
-49
-65
-81
-93
-105
-118
-126
-135
-139
-146
-149
-153
-158
-160
-167
-170
-175
-180
-186
-191
-192
-195
-199
-196
-198
-197
-193
-190
-186
-182
-177
-174
-167
-161
-158
-151
-143
-134
-126
-116
-103
-90
-76
-62
-49
-35
-22
-14
-4
4
11
15
18
22
24
29
27
26
27
27
28
30
29
31
30
29
36
36
38
42
46
52
58
61
68
74
78
84
87
87
90
95
98
101
102
103
104
105
108
107
106
107
102
99
96
88
83
74
64
53
43
31
19
9
-3
-18
-29
-42
-55
-69
-85
-99
-111
-122
-135
-139
-144
-147
-150
-150
-150
-148
-142
-135
-128
-116
-106
-90
-77
-62
-45
-28
-7
14
32
53
71
86
104
118
130
140
148
159
162
165
169
167
164
157
151
142
131
120
108
96
86
80
75
73
69
68
66
67
68
68
64
61
61
60
58
60
57
55
55
57
55
55
57
59
62
64
68
74
76
82
88
94
100
105
109
109
110
109
107
101
95
88
79
74
69
62
59
54
53
51
51
54
53
59
63
68
77
82
90
99
104
110
118
123
129
134
138
142
143
145
146
143
138
133
125
118
106
95
82
69
59
52
51
52
60
75
90
107
125
141
154
167
188
197
191
170
147
142
158
203
264
309
329
338
355
383
408
399
312
150
-74
-328
-579
-829
-1071
-1302
-1500
-1639
-1711
-1722
-1691
-1625
-1533
-1410
-1261
-1092
-919
-752
-601
-467
-345
-227
-120
-21
66
141
208
273
329
381
429
471
506
545
578
609
644
670
695
716
734
750
760
767
763
753
737
713
686
651
615
577
525
475
420
374
326
280
240
201
173
149
129
111
93
80
72
63
54
43
27
5
-21
-55
-90
-134
-183
-231
-280
-327
-371
-410
-447
-477
-501
-522
-535
-545
-549
-550
-542
-534
-521
-507
-489
-473
-454
-433
-411
-387
-368
-345
-324
-300
-279
-259
-238
-220
-205
-188
-175
-163
-152
-143
-132
-122
-111
-103
-90
-76
-63
-53
-40
-30
-17
-6
6
18
30
44
59
74
89
108
122
139
158
177
197
218
239
261
283
303
323
343
361
374
385
390
397
400
401
396
392
385
376
366
353
339
322
304
283
266
243
220
200
176
155
133
110
88
68
49
33
19
4
-8
-21
-30
-34
-39
-41
-41
-41
-38
-37
-32
-29
-25
-25
-24
-29
-35
-42
-51
-59
-67
-77
-84
-89
-92
-96
-97
-99
-98
-99
-97
-93
-88
-85
-81
-75
-69
-64
-62
-53
-49
-42
-35
-31
-28
-21
-18
-11
-6
-4
1
4
7
12
15
19
22
27
34
35
38
43
46
50
54
56
59
64
65
65
64
60
58
53
46
41
33
24
15
7
-4
-12
-19
-26
-34
-36
-39
-42
-46
-47
-48
-50
-55
-57
-60
-63
-67
-73
-77
-81
-83
-90
-95
-93
-96
-99
-98
-95
-94
-88
-85
-78
-71
-64
-54
-49
-40
-28
-20
-11
-2
6
14
20
27
31
37
39
43
45
46
44
43
40
37
33
29
28
27
26
24
23
22
19
18
14
10
7
0
-7
-15
-23
-35
-46
-58
-68
-77
-86
-96
-103
-110
-119
-125
-128
-131
-138
-140
-140
-139
-136
-133
-123
-115
-104
-90
-76
-62
-47
-35
-21
-9
2
14
22
30
40
47
55
62
67
71
72
76
72
68
62
54
44
36
28
18
7
1
-6
-12
-16
-19
-22
-24
-20
-14
-9
-3
4
12
23
33
48
57
71
82
95
107
117
130
139
147
154
161
167
171
173
175
175
174
169
164
157
150
140
132
121
105
88
68
46
23
-2
-29
-52
-76
-96
-114
-130
-146
-155
-165
-173
-178
-183
-185
-190
-192
-193
-193
-187
-184
-179
-172
-166
-155
-145
-133
-117
-104
-89
-75
-60
-45
-30
-16
-5
9
17
29
35
41
46
50
55
61
67
75
83
91
99
107
116
123
128
131
133
128
113
96
84
81
82
85
89
91
96
105
112
120
125
129
136
142
144
144
145
145
144
141
139
135
130
128
123
119
117
116
112
110
109
110
111
113
112
119
125
129
136
144
149
156
157
158
156
152
144
134
123
107
95
77
61
45
28
15
2
-13
-29
-42
-57
-76
-94
-113
-135
-157
-179
-202
-219
-238
-252
-268
-278
-290
-301
-308
-317
-325
-332
-341
-347
-354
-354
-355
-355
-349
-340
-330
-314
-298
-280
-263
-243
-222
-198
-180
-157
-136
-117
-96
-74
-59
-38
-22
-5
11
29
46
60
72
84
96
105
115
124
133
142
146
153
158
163
167
170
172
174
176
180
185
177
173
166
162
163
158
164
163
156
148
136
131
130
124
118
117
113
118
120
117
118
116
115
114
112
109
106
103
93
86
76
68
62
53
40
27
15
-1
-19
-41
-59
-80
-100
-123
-147
-170
-193
-218
-244
-267
-291
-313
-331
-350
-364
-375
-385
-390
-392
-392
-388
-383
-376
-369
-359
-349
-339
-330
-321
-305
-292
-277
-259
-245
-230
-214
-193
-171
-147
-119
-89
-61
-28
0
31
58
85
108
125
143
158
169
178
188
194
202
206
216
220
228
237
244
250
260
265
273
281
288
294
297
302
304
306
305
306
305
305
301
301
298
297
294
292
292
290
286
284
282
280
276
274
275
272
273
272
272
274
272
272
272
268
265
260
255
248
239
228
218
208
198
185
176
166
156
147
139
130
124
118
108
103
96
87
77
68
55
47
36
23
8
-8
-26
-47
-71
-96
-117
-145
-171
-194
-222
-250
-266
-276
-283
-296
-317
-342
-364
-389
-414
-443
-476
-509
-544
-579
-602
-616
-621
-621
-627
-634
-638
-641
-633
-620
-605
-586
-561
-531
-499
-465
-430
-391
-349
-307
-267
-226
-184
-143
-103
-64
-30
6
37
67
93
116
135
150
163
173
180
185
187
185
186
182
177
173
166
160
153
146
141
135
127
121
118
113
110
106
103
101
99
98
99
100
102
103
105
109
115
118
124
129
133
137
139
143
144
146
146
142
137
131
120
109
94
75
56
34
11
-15
-44
-73
-107
-137
-169
-199
-225
-247
-267
-283
-294
-301
-305
-304
-302
-296
-290
-283
-273
-262
-253
-242
-234
-224
-214
-210
-203
-199
-195
-193
-190
-189
-189
-186
-183
-174
-165
-156
-143
-128
-115
-102
-88
-78
-67
-56
-47
-36
-24
-12
0
12
26
43
60
77
92
108
122
137
152
168
181
193
205
218
230
239
246
252
254
256
259
260
261
259
257
256
253
249
247
246
242
238
235
229
224
219
213
208
201
197
189
183
176
169
161
152
141
128
114
99
81
59
37
16
-4
-27
-47
-66
-83
-98
-111
-117
-122
-123
-121
-120
-110
-101
-93
-81
-71
-62
-53
-45
-39
-34
-36
-39
-42
-47
-53
-57
-62
-66
-69
-71
-75
-73
-72
-70
-69
-65
-63
-58
-51
-45
-34
-24
-16
-3
9
19
31
42
54
64
72
80
87
93
97
103
108
110
111
114
115
115
117
116
117
116
117
118
121
125
126
130
134
137
143
146
148
152
155
155
158
162
165
167
168
171
172
171
171
168
168
169
166
164
160
157
153
150
147
138
131
118
105
91
75
55
34
13
-9
-31
-50
-71
-88
-106
-120
-129
-139
-146
-147
-150
-148
-143
-137
-131
-129
-126
-126
-126
-129
-133
-138
-147
-154
-160
-165
-165
-166
-162
-156
-149
-144
-140
-136
-132
-130
-128
-128
-130
-133
-136
-138
-142
-146
-153
-159
-167
-175
-183
-194
-202
-209
-214
-215
-216
-213
-209
-207
-204
-199
-195
-190
-188
-185
-180
-175
-168
-158
-144
-129
-111
-91
-70
-47
-24
0
23
47
69
89
107
126
140
154
165
174
181
185
190
190
190
188
182
178
169
162
151
141
131
121
109
99
90
83
77
73
66
63
58
55
48
41
36
30
23
10
-2
-13
-23
-31
-42
-48
-52
-57
-59
-60
-54
-52
-47
-44
-39
-31
-26
-18
-13
-5
-1
3
9
13
17
20
22
25
30
35
40
46
51
60
65
75
81
87
94
99
104
106
108
110
112
108
107
105
100
96
92
90
84
80
71
63
56
44
36
26
18
10
2
0
-2
-3
-2
-1
4
6
9
14
17
18
23
25
23
23
21
21
19
13
9
5
0
-3
-6
-8
-12
-14
-16
-18
-23
-29
-31
-28
-22
-11
-5
4
11
20
29
44
58
73
86
99
109
116
123
127
128
129
127
126
121
119
115
112
111
108
104
102
97
92
87
84
78
76
72
70
66
63
59
54
48
42
36
28
21
13
5
-7
-19
-30
-42
-52
-64
-73
-77
-84
-89
-91
-91
-92
-90
-91
-91
-90
-91
-93
-96
-97
-100
-101
-102
-103
-103
-105
-102
-104
-105
-107
-108
-107
-108
-108
-107
-107
-105
-101
-99
-94
-89
-83
-75
-67
-58
-52
-47
-44
-45
-48
-50
-58
-64
-72
-80
-88
-93
-96
-99
-103
-105
-101
-99
-97
-91
-87
-81
-76
-74
-74
-75
-79
-79
-81
-82
-86
-89
-90
-91
-91
-91
-91
-87
-81
-74
-69
-58
-49
-38
-26
-13
-1
14
25
38
51
65
75
85
95
100
109
114
119
122
124
124
127
129
126
127
127
127
129
127
129
132
134
132
133
133
135
138
140
144
146
148
150
151
151
146
144
142
143
141
140
141
138
141
140
138
136
131
128
123
116
109
101
92
88
82
77
71
68
61
54
52
48
45
42
38
37
38
37
40
44
49
54
58
62
68
74
78
82
84
85
86
86
88
86
82
81
78
73
71
64
59
54
52
49
50
51
52
55
55
58
61
61
62
63
64
64
64
62
58
52
51
46
42
37
33
26
20
12
3
-5
-15
-23
-33
-43
-53
-63
-70
-78
-86
-91
-94
-94
-95
-96
-92
-91
-89
-87
-83
-82
-82
-82
-83
-83
-85
-86
-88
-90
-91
-96
-98
-98
-100
-104
-105
-107
-109
-110
-111
-116
-120
-122
-122
-119
-114
-109
-102
-96
-94
-90
-89
-87
-87
-88
-91
-96
-105
-112
-123
-130
-137
-144
-148
-154
-154
-153
-153
-152
-150
-145
-141
-136
-131
-124
-122
-114
-109
-101
-96
-87
-80
-73
-65
-59
-50
-43
-37
-33
-29
-26
-24
-20
-16
-13
-7
-3
1
0
5
5
10
11
9
6
3
0
-6
-14
-17
-26
-29
-35
-41
-41
-48
-48
-46
-47
-40
-38
-29
-21
-11
-1
7
18
25
39
48
56
65
69
76
81
81
87
82
78
83
81
81
82
82
85
88
88
93
95
97
100
103
104
108
112
113
118
118
119
120
117
113
112
100
92
77
64
56
46
39
34
31
33
37
42
50
57
61
71
74
77
76
73
75
65
62
56
47
45
38
34
28
24
20
14
11
3
-6
-13
-27
-38
-50
-62
-69
-81
-87
-94
-94
-93
-86
-81
-70
-61
-54
-37
-32
-19
-12
-6
2
4
7
11
12
13
14
19
23
30
37
45
57
68
82
97
110
124
133
146
154
158
164
165
167
169
165
160
156
151
146
138
132
128
122
117
110
106
103
101
96
90
88
84
81
74
65
56
48
36
25
11
-1
-10
-25
-37
-48
-60
-65
-76
-79
-85
-85
-89
-86
-87
-88
-86
-86
-83
-82
-79
-76
-72
-66
-65
-63
-59
-60
-55
-54
-55
-54
-56
-54
-56
-53
-56
-51
-51
-47
-40
-38
-27
-19
-12
-6
0
6
12
19
25
27
27
28
30
29
26
18
14
11
7
1
-2
-6
-10
-15
-19
-26
-26
-30
-32
-33
-38
-35
-37
-38
-38
-40
-43
-46
-51
-56
-64
-72
-81
-91
-100
-110
-118
-125
-128
-130
-130
-126
-127
-120
-112
-110
-98
-94
-84
-77
-71
-62
-60
-56
-56
-55
-56
-58
-58
-60
-60
-63
-64
-66
-60
-59
-54
-48
-44
-32
-24
-18
-7
-2
9
14
18
25
29
36
42
47
52
60
67
77
85
91
102
110
118
125
133
140
147
154
157
163
166
167
169
164
161
158
146
135
121
107
93
77
66
49
38
25
11
2
-14
-23
-29
-40
-48
-53
-63
-64
-69
-73
-71
-72
-70
-64
-60
-61
-55
-55
-51
-45
-47
-44
-39
-41
-40
-40
-43
-38
-39
-36
-34
-24
-15
-3
10
22
38
52
68
82
94
107
118
131
137
149
159
168
172
178
176
176
177
173
170
168
161
156
152
142
143
142
134
134
129
127
128
123
117
112
103
96
90
80
69
59
50
45
38
30
21
12
9
-2
-8
-18
-31
-38
-46
-61
-67
-77
-90
-92
-103
-107
-113
-120
-128
-133
-144
-150
-160
-171
-178
-183
-191
-192
-193
-194
-187
-187
-181
-174
-173
-164
-158
-149
-145
-137
-134
-126
-113
-107
-96
-92
-87
-81
-77
-71
-67
-67
-61
-61
-63
-60
-65
-67
-67
-75
-76
-79
-88
-93
-90
-98
-98
-100
-101
-99
-101
-99
-100
-98
-92
-89
-83
-73
-69
-59
-48
-41
-30
-23
-16
-3
3
16
28
32
39
44
47
51
56
61
67
64
68
72
67
69
68
63
66
62
58
57
50
44
37
29
20
11
-3
-15
-29
-45
-50
-65
-76
-79
-92
-94
-103
-113
-115
-124
-129
-136
-141
-147
-154
-168
-177
-181
-196
-202
-212
-227
-233
-241
-252
-252
-259
-263
-260
-264
-263
-260
-256
-251
-243
-238
-225
-219
-207
-193
-182
-170
-150
-137
-116
-98
-79
-55
-36
-12
10
30
51
67
88
105
121
136
152
166
176
188
197
206
212
220
220
219
222
219
218
212
203
199
188
178
168
155
143
129
124
114
109
103
99
103
100
107
105
107
112
111
113
113
113
113
121
126
123
129
129
125
111
91
88
96
107
118
123
121
123
127
132
150
178
223
286
359
446
534
623
713
786
846
895
917
924
926
904
875
832
776
729
670
599
525
442
362
288
204
123
39
-44
-116
-186
-257
-318
-368
-413
-446
-481
-518
-548
-574
-597
-617
-643
-668
-689
-717
-738
-750
-757
-751
-737
-713
-696
-684
-669
-658
-632
-600
-575
-566
-571
-579
-589
-601
-615
-626
-634
-641
-658
-676
-683
-681
-672
-664
-647
-626
-586
-544
-487
-426
-359
-272
-196
-99
1
98
203
296
393
483
565
648
716
784
840
891
944
986
1028
1059
1085
1109
1112
1117
1101
1074
1039
987
928
853
776
690
603
520
439
369
302
249
203
169
145
132
126
125
132
132
139
143
141
135
124
111
95
69
42
14
-23
-60
-100
-144
-182
-224
-270
-308
-360
-400
-446
-491
-540
-584
-630
-678
-713
-759
-797
-828
-861
-885
-907
-926
-939
-947
-946
-933
-915
-876
-830
-771
-699
-618
-532
-439
-345
-249
-154
-62
23
104
177
243
299
345
387
416
444
463
470
480
479
476
472
463
454
436
425
404
384
367
340
320
296
274
254
230
214
195
183
179
169
165
160
159
158
154
155
153
154
160
159
165
166
174
181
189
202
208
222
228
236
245
246
254
250
251
255
248
250
245
243
242
238
234
230
225
217
214
202
196
189
177
172
164
149
145
139
126
125
112
107
102
98
91
85
80
70
69
57
54
46
33
24
8
0
-12
-31
-48
-66
-86
-108
-128
-148
-170
-193
-217
-241
-271
-299
-326
-357
-385
-411
-439
-456
-472
-482
-485
-488
-483
-478
-465
-452
-433
-416
-390
-364
-340
-306
-278
-244
-213
-175
-138
-101
-59
-24
11
49
78
106
133
153
173
187
201
211
219
229
233
240
241
245
246
248
248
242
238
232
223
213
204
183
179
161
146
138
118
104
86
75
63
54
54
48
49
53
56
62
60
62
57
55
56
50
56
55
64
69
75
92
99
113
121
127
137
136
142
144
142
140
136
137
131
128
126
119
115
110
105
97
88
80
75
62
50
38
20
7
-16
-34
-55
-83
-100
-130
-154
-179
-208
-240
-276
-309
-344
-375
-409
-436
-459
-482
-501
-511
-527
-535
-540
-551
-549
-546
-545
-533
-522
-506
-487
-467
-447
-422
-397
-371
-347
-321
-294
-271
-246
-220
-192
-168
-140
-113
-85
-58
-30
-4
21
45
68
92
110
131
145
161
173
180
192
196
202
208
207
214
214
218
223
222
226
230
232
229
232
230
225
223
216
208
204
197
194
188
185
180
177
174
174
170
171
172
174
175
177
176
177
183
182
185
190
194
198
205
202
205
208
212
214
215
220
219
222
220
213
209
201
192
182
166
154
137
114
99
73
49
19
-15
-49
-92
-130
-174
-214
-258
-299
-336
-367
-389
-410
-416
-422
-421
-416
-407
-398
-382
-372
-359
-349
-343
-339
-331
-330
-329
-330
-333
-339
-340
-346
-348
-347
-346
-336
-326
-311
-291
-270
-240
-211
-178
-147
-116
-81
-54
-26
1
25
45
65
81
95
105
118
123
129
137
140
151
161
171
181
192
204
213
221
229
237
243
249
254
258
261
261
260
256
256
254
249
251
248
248
250
250
255
260
267
275
280
288
298
306
315
322
327
329
335
333
331
327
319
309
297
283
267
252
238
221
205
190
177
164
147
135
117
104
87
69
48
29
5
-20
-44
-75
-105
-138
-172
-204
-238
-270
-295
-318
-342
-352
-365
-370
-366
-364
-356
-349
-342
-333
-323
-319
-315
-314
-314
-316
-323
-327
-334
-340
-345
-349
-350
-352
-347
-344
-334
-326
-311
-291
-270
-240
-211
-179
-146
-117
-88
-55
-32
-7
17
36
58
73
93
107
121
128
139
142
173
179
191
209
204
226
226
228
223
213
216
214
216
220
210
202
194
184
174
172
167
159
156
146
150
148
149
155
157
165
172
177
184
189
195
202
210
215
219
224
227
229
230
233
229
224
218
212
202
191
184
172
162
151
135
126
107
95
82
67
57
40
29
12
-7
-25
-45
-62
-90
-114
-141
-170
-198
-231
-261
-296
-330
-365
-399
-435
-464
-493
-520
-540
-556
-570
-579
-590
-592
-595
-594
-588
-580
-571
-556
-540
-524
-500
-479
-454
-428
-399
-366
-336
-298
-263
-227
-193
-159
-123
-95
-63
-38
-14
11
31
51
68
89
106
120
136
150
166
182
194
210
224
237
250
262
269
279
291
296
304
313
317
326
332
344
352
366
383
405
429
451
472
492
515
543
569
584
583
567
552
536
534
548
576
640
704
739
749
758
780
806
796
700
516
280
26
-232
-497
-742
-963
-1153
-1296
-1389
-1422
-1421
-1385
-1325
-1241
-1128
-1006
-875
-742
-626
-522
-425
-344
-263
-193
-127
-71
-26
11
36
53
62
64
68
66
62
60
57
58
59
60
67
71
81
89
91
95
92
93
87
81
76
71
63
57
48
43
35
28
27
22
23
29
39
51
64
81
99
120
137
157
173
190
198
204
207
203
196
183
169
147
128
108
89
70
52
36
15
0
-7
-10
-4
3
17
30
40
54
70
89
108
130
156
183
208
234
257
278
296
309
318
323
326
328
326
324
319
309
301
291
288
279
270
263
255
246
233
225
213
206
193
181
159
136
111
84
52
12
-31
-78
-126
-176
-229
-281
-322
-367
-405
-432
-459
-478
-495
-501
-508
-511
-503
-494
-479
-462
-440
-417
-393
-367
-347
-323
-303
-286
-269
-257
-249
-240
-233
-232
-231
-233
-232
-230
-231
-228
-228
-226
-223
-223
-221
-221
-219
-218
-217
-212
-210
-205
-198
-189
-178
-172
-163
-149
-141
-128
-117
-103
-88
-71
-53
-31
-10
11
37
60
84
109
132
152
177
198
216
234
250
266
276
288
297
302
307
307
311
313
311
309
306
298
294
291
285
278
273
266
263
257
254
248
244
242
239
235
234
233
231
230
227
224
223
223
218
215
210
206
205
197
190
180
173
165
155
145
134
121
105
95
79
63
45
30
12
-3
-18
-34
-48
-62
-75
-88
-102
-114
-131
-147
-166
-186
-210
-232
-253
-277
-298
-313
-327
-332
-334
-331
-323
-313
-299
-287
-271
-252
-236
-219
-203
-190
-176
-162
-148
-137
-127
-116
-107
-96
-87
-80
-75
-73
-71
-69
-65
-67
-64
-64
-68
-68
-70
-70
-70
-70
-67
-64
-58
-52
-45
-39
-31
-23
-16
-8
-2
1
8
10
13
18
21
22
25
27
30
31
34
38
41
45
49
53
56
56
57
58
58
60
58
60
59
59
56
59
58
56
57
55
52
49
48
43
39
32
24
16
8
-2
-13
-20
-29
-40
-48
-53
-57
-61
-62
-64
-66
-69
-72
-75
-80
-82
-85
-84
-82
-81
-79
-75
-74
-71
-69
-67
-65
-61
-58
-58
-56
-54
-54
-52
-56
-60
-63
-66
-74
-80
-82
-87
-82
-83
-79
-74
-71
-60
-55
-46
-38
-30
-24
-18
-10
-5
0
0
6
9
12
15
18
22
26
27
31
36
41
46
54
63
73
83
94
104
112
123
132
140
143
148
150
151
154
153
152
150
151
151
150
147
143
140
137
137
134
133
130
127
125
124
122
121
118
118
117
118
118
121
125
129
133
134
135
136
140
140
138
137
132
129
124
120
114
110
104
99
95
91
89
84
82
81
77
69
59
48
32
13
-10
-33
-59
-84
-108
-130
-148
-162
-173
-182
-184
-186
-183
-181
-178
-171
-168
-166
-166
-165
-169
-176
-179
-179
-176
-170
-167
-165
-160
-153
-146
-137
-129
-118
-107
-96
-84
-74
-63
-52
-44
-30
-17
-1
17
30
44
57
68
76
81
84
88
93
89
84
76
69
66
62
58
53
51
47
46
46
48
48
51
52
53
56
60
67
71
81
87
96
103
109
118
123
125
127
126
126
124
123
122
121
120
120
119
120
123
121
120
119
113
109
102
93
85
73
59
45
32
20
3
-13
-31
-47
-63
-73
-88
-100
-110
-116
-120
-123
-121
-121
-118
-112
-108
-105
-98
-91
-89
-81
-75
-72
-68
-64
-60
-57
-53
-53
-50
-51
-56
-57
-61
-61
-65
-68
-70
-75
-78
-81
-82
-84
-86
-86
-84
-83
-82
-75
-69
-62
-54
-44
-34
-25
-19
-14
-8
-6
-3
-1
1
3
5
10
16
22
27
34
42
49
59
66
75
78
76
79
79
80
78
75
72
68
68
64
68
65
66
66
70
75
80
88
95
101
112
122
130
141
149
156
166
173
178
182
183
186
184
179
175
165
154
145
134
119
105
92
73
57
41
24
6
-12
-28
-48
-67
-83
-104
-123
-143
-165
-186
-206
-221
-242
-256
-270
-279
-283
-285
-283
-275
-265
-248
-225
-199
-173
-141
-111
-78
-47
-17
7
27
48
66
82
93
102
104
108
109
111
109
107
103
97
91
82
76
70
59
51
43
35
30
26
21
15
8
6
1
-5
-8
-8
-8
-9
-10
-11
-9
-6
-3
1
5
9
9
11
15
23
25
32
39
45
53
57
66
75
82
87
91
94
99
103
104
106
104
105
104
102
98
90
83
72
61
50
34
20
5
-5
-18
-32
-43
-56
-69
-83
-95
-110
-126
-143
-160
-178
-195
-214
-231
-248
-261
-275
-287
-295
-306
-314
-323
-331
-340
-347
-352
-354
-351
-346
-339
-325
-310
-289
-263
-237
-209
-181
-154
-125
-97
-72
-51
-31
-12
6
22
40
52
64
73
85
99
106
119
131
141
160
171
181
195
203
215
229
240
249
255
262
265
270
268
272
272
266
265
260
257
254
248
244
246
242
235
237
232
232
231
227
226
220
217
210
207
203
198
196
194
191
187
187
180
179
178
169
170
167
166
166
166
169
166
173
173
170
173
172
172
168
166
155
148
142
131
126
109
96
91
72
58
47
31
15
-2
-23
-45
-64
-88
-114
-140
-166
-196
-219
-247
-275
-294
-324
-345
-363
-381
-394
-400
-404
-413
-409
-401
-396
-389
-377
-367
-357
-341
-324
-310
-290
-269
-252
-230
-203
-179
-156
-129
-107
-85
-61
-37
-17
-1
14
26
36
48
51
56
58
61
65
66
69
70
72
78
79
80
87
91
98
99
106
108
111
120
122
126
131
129
134
136
136
135
136
137
133
134
128
125
121
118
120
118
121
119
116
122
126
128
132
134
138
136
131
127
124
117
109
105
97
85
81
70
61
55
44
34
26
18
10
8
-1
-16
-22
-35
-44
-57
-68
-79
-90
-98
-108
-117
-126
-132
-139
-146
-156
-163
-175
-180
-191
-207
-219
-235
-251
-272
-286
-304
-331
-350
-373
-398
-423
-446
-471
-498
-521
-536
-549
-557
-558
-552
-545
-524
-501
-476
-445
-418
-386
-354
-325
-296
-269
-241
-212
-185
-158
-130
-100
-70
-46
-18
9
35
57
79
102
118
137
152
161
163
168
177
186
197
202
206
218
222
227
233
236
237
241
246
245
251
252
256
258
264
267
267
268
266
262
252
242
229
229
230
227
227
220
217
208
208
215
220
224
227
226
225
226
227
224
221
214
218
223
223
230
226
229
230
230
228
221
221
213
206
202
191
186
175
169
161
150
141
128
120
108
98
88
75
62
48
35
22
11
-1
-15
-26
-39
-49
-59
-70
-82
-93
-101
-114
-126
-137
-150
-161
-172
-186
-199
-212
-222
-232
-243
-253
-266
-278
-289
-297
-310
-323
-338
-353
-364
-375
-384
-390
-395
-399
-398
-390
-386
-372
-357
-342
-324
-304
-282
-263
-238
-215
-194
-173
-152
-133
-117
-98
-85
-71
-54
-43
-32
-19
-9
3
15
29
37
50
63
72
87
100
115
130
139
151
167
175
186
194
202
211
224
231
238
248
257
263
268
272
272
278
280
282
283
282
280
281
283
286
282
282
284
284
288
289
285
285
281
277
271
265
259
251
246
238
227
220
213
206
198
190
185
179
173
166
161
156
149
144
132
126
117
106
95
78
63
47
27
4
-14
-36
-59
-81
-105
-129
-153
-173
-197
-220
-240
-258
-273
-288
-300
-313
-322
-328
-335
-338
-345
-345
-347
-349
-346
-348
-347
-347
-349
-348
-347
-346
-342
-334
-326
-316
-307
-297
-286
-269
-254
-238
-223
-206
-190
-174
-161
-145
-131
-124
-117
-114
-113
-118
-121
-125
-125
-123
-120
-118
-111
-102
-94
-84
-72
-61
-47
-35
-20
-3
13
34
53
70
91
108
123
138
155
172
187
201
209
219
226
228
232
233
235
240
239
237
232
223
216
210
204
194
186
181
170
160
151
143
136
130
121
119
114
109
108
106
108
110
115
114
115
117
116
120
121
123
122
121
123
124
122
123
123
121
123
120
116
110
101
97
85
74
66
53
41
30
11
-8
-31
-57
-83
-108
-133
-158
-182
-201
-222
-242
-259
-272
-289
-300
-310
-317
-323
-327
-325
-322
-317
-306
-300
-294
-286
-277
-269
-259
-247
-237
-221
-204
-184
-159
-137
-114
-88
-60
-32
-3
19
42
58
73
87
98
109
117
126
136
144
152
159
165
166
168
168
168
167
165
160
156
155
149
146
145
142
137
132
129
124
122
119
108
105
99
95
93
93
96
100
105
108
114
116
117
116
117
116
116
113
112
111
110
111
110
114
118
123
127
134
138
142
146
146
148
147
147
147
146
146
147
147
146
148
145
144
139
135
132
127
123
115
103
90
77
59
42
22
2
-21
-44
-70
-94
-120
-145
-170
-194
-218
-239
-259
-282
-299
-316
-332
-344
-360
-366
-371
-370
-368
-366
-353
-338
-320
-302
-285
-263
-244
-222
-206
-191
-175
-162
-150
-140
-129
-119
-111
-101
-89
-76
-66
-54
-37
-23
-6
7
21
37
49
61
72
83
92
96
102
102
101
95
88
81
73
59
46
34
18
5
-6
-19
-30
-38
-42
-45
-47
-45
-39
-32
-24
-16
-7
3
12
19
26
30
33
37
39
41
45
50
54
55
58
61
64
67
72
75
79
78
78
75
72
68
60
50
40
25
14
3
-8
-17
-26
-30
-33
-39
-38
-41
-46
-49
-54
-58
-67
-72
-84
-95
-102
-111
-120
-125
-126
-127
-125
-120
-112
-105
-92
-80
