0,0
821,1000
852,933
847,941
814,932
908,1076
856,990
801,965
790,981
825,1004
938,1049
893,1007
884,1010
802,1024
894,1046
926,1036
891,1048
886,1036
857,1076
908,1076
973,1028
921,1099
924,1104
955,1146
935,1100
935,1037
922,1129
976,1157
987,1226
948,1168
923,1131
977,1240
992,1267
1081,1296
1013,1271
956,1206
1057,1316
1095,1392
1151,1371
1116,1434
1060,1422
1169,1486
1230,1563
1241,1539
1274,1657
1247,1710
1349,1798
1347,1765
1369,1845
1511,1984
1547,2122
1580,2143
1578,2111
1635,2259
1719,2324
1827,2454
1841,2477
1799,2551
1889,2661
1980,2696
2075,2759
2056,2856
2126,2981
2182,3020
2181,3050
2228,3153
2310,3326
2505,3477
2523,3566
2577,3671
2665,3875
2826,3992
2936,4119
3007,4311
3121,4482
3177,4690
3338,4787
3488,4922
3503,5081
3645,5281
3708,5434
3759,5488
3828,5524
3928,5733
4021,5838
4147,6001
4120,6035
4176,6134
4303,6352
4443,6427
4628,6664
4708,6964
4875,7179
5130,7518
5275,7756
5559,8151
5930,8686
6327,9291
6761,9897
7192,10712
7803,11619
8622,12708
9390,13817
10043,14829
10684,15872
11447,16921
12046,17798
12741,18677
13269,19556
13856,20502
14581,21446
15222,22464
16044,23591
16986,25076
18059,26570
19066,28134
20161,29729
21451,31532
22710,33467
24114,35310
25252,37026
26384,38642
27568,40365
28857,42112
30118,43832
31172,45425
32095,46815
32927,48089
33893,49300
34804,50533
35742,51934
36699,53346
37524,54633
38258,55727
38998,56831
39822,58109
40547,59335
41392,60528
42097,61629
42689,62492
43162,63231
43518,63786
43954,64395
44396,65231
45018,65756
45839,66975
46728,68403
47879,70058
49154,72009
50454,74167
52028,76477
53698,78944
55570,81560
57687,84268
59871,87323
62223,90433
64479,93414
66226,95942
67886,97989
69270,99023
70202,99440
70703,98975
70624,97689
70216,95712
69978,94292
72010,96124
74866,99247
77547,102124
79831,104582
81721,106845
83261,109043
84914,111118
86242,112879
87102,113992
87727,114723
88075,115159
88355,115436
88516,115583
88666,115605
88861,115690
89013,115693
89178,115670
89344,115746
89507,115724
89683,115787
89871,115810
90050,115893
90206,115917
90459,115971
90669,116061
90968,116148
91381,116341
91744,116495
92181,116696
92608,116943
93044,117109
93458,117348
93790,117509
94149,117682
94397,117839
100391,121151
101032,121554
101593,121880
102035,122175
102456,122424
102807,122627
103133,122814
103431,123008
103678,123154
105234,123775
105305,123829
105383,123851
105478,123859
105542,123876
105634,123912
105669,123900
105723,123947
105802,123908
105864,123981
105876,123942
106012,123985
106103,124040
106233,124040
106374,124135
106473,124146
106671,124252
109252,125293
109380,125353
109452,125389
109518,125384
109619,125442
109692,125485
109783,125510
109835,125550
110274,125677
110267,125666
110307,125651
110328,125696
110331,125668
110327,125674
110367,125685
110385,125666
110394,125670
110447,125712
110461,125683
110499,125706
110488,125707
110534,125707
110573,125734
110555,125729
110931,125790
110920,125779
110974,125795
110976,125805
110960,125828
110945,125752
109112,124682
108955,124552
108774,124468
108640,124350
108457,124305
108351,124215
108285,124154
108161,124090
108130,124059
108001,124063
107964,123961
107975,123993
107881,123929
107887,123918
107887,123873
107947,123909
107935,123924
107996,123938
108056,123971
108078,123952
108116,123993
108134,124009
108215,124007
108249,124056
108235,124013
108298,124045
108290,124073
108323,124063
108377,124078
108376,124089
108397,124077
108384,124094
108451,124069
108449,124094
108480,124092
108490,124096
108526,124111
108519,124113
108577,124102
108595,124123
108654,124181
108651,124155
108720,124203
108735,124189
108819,124226
108864,124288
108881,124255
109018,124318
109049,124370
109124,124366
109212,124424
109280,124460
109324,124479
109424,124495
109439,124551
109482,124527
109584,124589
109554,124579
109642,124585
109649,124615
109686,124573
109730,124623
109743,124590
109814,124628
109832,124654
109867,124658
109897,124666
109953,124675
109984,124689
110036,124685
110025,124728
110076,124744
110106,124729
110155,124730
110162,124775
110166,124737
110264,124797
110244,124788
110300,124780
110340,124819
110400,124801
110483,124867
110537,124880
110650,124927
110677,124979
110774,124978
110856,125029
110895,125064
111028,125123
111067,125114
111157,125153
111187,125216
111223,125169
111341,125252
111343,125263
111383,125251
111449,125324
111465,125278
111516,125342
111520,125363
111602,125348
111604,125398
111634,125379
111666,125336
111653,125367
111696,125392
111684,125387
111737,125388
111713,125427
111739,125394
111786,125427
111761,125390
111737,125432
111764,125428
111773,125365
111838,125423
111795,125440
111804,125368
111840,125429
111836,125392
111865,125418
111863,125416
111881,125414
111889,125427
111912,125419
111928,125457
111913,125411
111962,125414
111918,125442
111906,125385
111960,125430
111910,125402
111927,125391
111927,125409
111954,125383
111945,125436
111935,125382
111949,125376
111916,125389
111923,125376
111915,125370
111931,125363
111933,125390
111904,125321
111902,125341
111862,125342
111894,125310
111880,125350
111846,125278
111874,125295
111830,125308
111843,125275
111861,125296
111832,125273
111827,125283
111866,125276
111872,125271
111894,125303
111916,125290
111925,125321
111907,125268
111991,125316
111947,125347
112000,125340
111983,125352
112060,125354
112098,125383
112063,125388
112095,125372
112137,125413
112150,125381
112162,125405
112173,125393
112177,125406
112217,125416
112183,125408
112231,125403
112199,125412
112217,125402
112199,125422
112249,125398
112232,125412
112204,125373
112243,125401
112204,125413
112232,125383
112222,125413
112227,125381
112223,125404
112228,125380
112282,125398
112263,125379
112264,125422
112259,125390
112279,125424
112249,125388
112273,125402
112262,125406
112278,125370
112331,125440
112283,125419
112335,125409
112321,125433
112333,125400
112333,125449
112335,125436
112346,125434
112333,125408
112372,125416
112376,125441
112408,125441
112353,125442
112407,125412
112397,125415
112414,125408
112449,125451
112396,125458
112431,125421
112463,125468
112458,125458
112482,125455
112478,125490
112521,125453
112528,125472
112523,125496
112571,125506
112597,125509
112621,125511
112634,125537
112627,125528
112702,125566
112668,125580
112717,125538
112749,125584
112723,125549
112749,125582
112725,125587
112779,125580
112770,125582
112775,125559
112728,125559
112701,125534
112676,125512
112592,125455
112547,125397
112401,125343
112243,125219
112089,125145
111796,124994
111565,124821
111253,124685
110951,124484
110697,124383
110412,124232
110247,124105
109992,124034
109774,123862
109637,123799
109451,123724
109330,123652
109183,123559
109055,123474
108918,123458
108839,123410
108739,123332
108726,123300
108661,123324
108619,123237
108610,123262
108575,123288
108552,123239
108573,123262
108529,123242
108550,123240
108555,123239
108558,123246
108571,123244
108591,123270
108560,123250
108580,123244
108647,123275
108618,123301
108615,123244
108664,123301
108647,123269
108676,123298
108689,123325
108708,123322
108708,123297
108737,123293
108733,123301
108702,123270
108705,123278
108694,123280
108665,123286
108665,123272
108685,123262
108687,123277
108652,123254
108678,123278
108676,123282
108693,123247
108710,123311
108709,123261
108780,123338
108779,123338
108841,123342
108854,123374
108895,123369
108933,123396
108997,123412
108969,123440
109005,123463
108999,123460
109036,123426
109051,123439
109021,123460
109010,123383
109029,123431
108968,123400
108944,123371
108919,123374
108911,123305
108899,123321
108829,123290
108833,123285
108779,123279
108786,123259
108743,123254
108729,123264
108724,123232
108693,123219
108740,123224
108715,123253
108729,123193
108776,123244
108755,123243
108807,123246
108840,123291
108875,123270
108951,123314
108955,123345
109025,123368
109082,123386
109159,123432
109192,123443
109275,123479
109291,123512
109348,123502
109401,123571
109407,123540
109468,123584
109461,123588
109543,123597
109542,123651
109545,123600
109622,123652
109603,123635
109636,123678
109640,123671
109649,123650
109675,123665
109661,123671
109655,123649
109663,123654
109604,123630
109652,123646
109601,123666
109575,123589
109587,123612
109532,123611
109532,123572
109523,123603
109490,123544
109514,123567
109477,123557
109505,123536
109486,123540
109490,123541
109512,123556
109514,123570
109559,123573
109568,123615
109591,123550
109654,123637
109623,123595
109716,123663
109741,123640
109735,123667
109802,123666
109768,123686
109833,123681
109837,123718
109854,123680
109891,123743
109857,123721
109881,123719
109925,123715
109909,123721
109940,123707
109951,123740
109922,123726
109962,123727
109911,123716
109926,123710
109928,123751
109898,123702
109897,123684
109866,123690
109893,123675
109849,123670
109861,123650
109875,123707
109878,123666
109878,123674
109882,123688
109868,123695
109871,123711
109915,123695
109963,123700
109944,123736
109972,123704
110014,123744
109997,123699
110023,123752
110020,123751
110095,123750
110092,123789
110085,123758
110115,123781
110150,123795
110143,123818
110206,123850
110206,123811
110224,123846
110256,123843
110300,123852
110300,123906
110327,123858
110365,123885
110344,123902
110397,123891
110401,123931
110401,123900
110453,123916
110464,123961
110460,123946
110477,123929
110489,123962
110496,123952
110518,123936
110541,123971
110520,123988
110561,123954
110579,123997
110545,123962
110609,124004
110581,124023
110610,123982
110654,124040
110628,123990
110676,124020
110672,124027
110744,124061
110746,124057
110800,124092
110790,124083
110861,124135
110851,124120
110900,124115
110917,124145
110947,124131
110992,124175
110986,124156
111026,124173
111055,124220
111073,124191
111118,124239
111095,124226
111145,124227
111173,124276
111229,124276
111244,124260
111265,124298
111300,124312
111331,124340
111338,124347
111382,124373
111416,124382
111421,124418
111463,124375
111532,124413
111516,124455
111562,124439
111636,124482
111632,124474
111689,124489
111707,124542
111779,124531
111780,124568
111835,124567
111847,124572
111914,124631
111934,124610
111997,124649
111995,124657
112057,124697
112091,124687
112065,124688
112100,124670
112070,124666
112091,124648
111996,124631
111954,124583
111816,124488
111653,124370
111404,124242
111173,124123
110882,123951
110626,123819
110366,123660
110121,123568
109925,123423
109660,123275
109422,123157
109225,123069
109039,122960
108856,122882
108739,122792
108651,122767
108549,122689
108521,122676
108444,122659
108424,122632
108415,122673
108399,122619
108368,122599
108382,122618
108357,122622
108417,122654
108393,122630
108435,122642
108461,122705
108472,122659
108503,122700
108519,122710
108553,122701
108579,122774
108617,122752
108673,122776
108686,122758
108723,122825
108732,122789
108758,122844
108730,122823
108782,122799
108766,122830
108744,122791
108787,122832
108716,122776
108764,122805
108747,122801
108779,122795
108760,122804
108761,122814
108782,122786
108782,122825
108812,122848
108847,122840
108901,122896
108933,122879
108986,122923
109030,122950
109062,122960
109114,123009
109118,123015
109214,123029
109224,123080
109233,123034
109300,123086
109263,123082
109309,123087
109292,123095
109294,123041
109284,123063
109292,123042
109241,123033
109207,123015
109214,123011
109153,122985
109132,122930
109118,122955
109037,122904
109040,122877
109001,122916
108933,122846
108932,122834
108892,122815
108891,122792
108838,122841
108813,122767
108849,122803
108841,122798
108795,122767
108842,122804
108860,122797
108838,122824
108843,122789
108861,122775
108897,122821
108906,122806
108955,122856
108983,122863
109000,122882
109093,122915
109118,122954
109166,122942
109212,122994
109228,123015
109294,123035
109336,123053
109394,123066
109406,123109
109475,123089
109509,123156
109519,123127
109609,123187
109604,123220
109624,123180
109689,123245
109683,123200
109726,123254
109747,123241
109791,123269
109804,123326
109825,123273
109847,123306
109855,123297
109903,123312
109925,123333
109973,123363
109955,123330
109984,123359
109962,123370
110024,123362
110034,123400
110037,123367
110073,123387
110056,123408
110072,123387
110090,123437
110081,123376
110111,123407
110092,123395
110091,123365
110112,123396
110091,123396
110107,123372
110113,123404
110101,123372
110128,123395
110101,123394
110092,123388
110146,123395
110166,123424
110116,123402
110163,123401
110146,123439
110129,123379
110174,123411
110164,123400
110157,123367
110157,123384
110170,123375
110182,123402
110121,123417
110160,123390
110150,123404
110141,123353
110168,123397
110143,123392
110197,123384
110189,123415
110207,123387
110253,123437
110240,123453
110300,123439
110284,123458
110332,123465
110354,123471
110331,123497
110376,123467
110430,123509
110462,123534
110477,123528
110527,123545
110529,123582
110527,123573
110631,123608
110612,123631
110652,123617
110722,123674
110722,123636
110758,123687
110783,123671
110815,123713
110861,123699
110902,123740
110920,123749
110994,123787
110950,123781
111010,123806
111020,123831
111061,123813
111086,123852
111104,123851
111086,123844
111115,123834
111140,123906
111172,123857
111191,123904
111171,123868
111235,123912
111264,123952
111250,123935
111309,123940
111315,123971
111327,123925
111372,123987
111367,123987
111412,123967
111392,124007
111402,123974
111465,124018
111394,124015
111463,123995
111454,124027
111470,124041
111504,124033
111508,124022
111509,124052
111545,124068
111537,124035
111561,124071
111557,124066
111602,124046
111621,124090
111594,124070
111646,124097
111635,124123
111665,124068
111683,124114
111672,124078
111717,124132
111705,124117
111757,124118
111759,124145
111784,124154
111781,124163
111834,124152
111789,124191
111777,124161
111820,124179
111829,124166
111867,124187
111851,124160
111899,124210
111875,124216
111897,124176
111953,124221
111913,124221
111931,124204
111942,124237
111920,124193
111896,124170
111832,124172
111738,124086
111625,123986
111489,123931
111230,123826
111028,123642
110786,123555
110531,123370
110313,123303
110025,123133
109838,123013
109536,122899
109283,122720
109077,122615
108878,122518
108682,122402
108552,122357
108443,122285
108321,122247
108269,122180
108212,122194
108160,122129
108118,122134
108065,122081
108080,122083
108007,122099
107993,122053
108034,122082
107984,122064
108001,122046
107993,122085
107986,122030
108020,122099
108015,122087
108012,122097
108032,122091
108008,122090
108080,122110
108082,122115
108086,122090
108073,122129
108058,122090
108116,122125
108084,122135
108075,122106
108093,122128
108065,122102
108111,122124
108101,122129
108087,122094
108097,122117
108104,122121
108119,122144
108139,122134
108114,122122
108113,122122
108142,122123
108146,122182
108181,122133
108243,122196
108233,122188
108277,122197
108299,122244
108368,122257
108387,122268
108455,122284
108500,122355
108542,122344
108604,122383
108593,122394
108625,122391
108639,122395
108661,122420
108675,122401
108689,122417
108660,122371
108683,122401
108617,122388
108645,122374
108594,122378
108599,122338
108593,122357
108546,122303
108527,122293
108490,122288
108490,122282
108457,122255
108444,122261
108389,122244
108391,122226
108369,122249
108348,122195
108371,122215
108332,122208
108373,122188
108370,122244
108369,122183
108425,122244
108374,122232
108422,122226
108439,122251
108457,122242
108494,122277
108515,122309
108551,122255
108586,122316
108603,122354
108659,122374
108665,122400
108704,122382
108707,122427
108744,122405
108736,122431
108786,122452
108758,122412
108759,122435
108747,122462
108776,122418
108784,122436
108788,122417
108778,122442
108800,122436
108851,122490
108830,122494
108849,122444
108888,122473
108882,122530
108920,122485
108933,122555
108965,122492
108981,122546
108989,122550
109046,122560
109039,122567
109084,122549
109098,122622
109100,122603
109149,122617
109160,122613
109181,122624
109179,122663
109207,122613
109263,122671
109249,122687
109307,122641
109321,122704
109329,122703
109355,122715
109359,122725
109407,122712
109410,122756
109415,122721
109493,122758
109480,122755
109506,122775
109510,122783
109544,122794
109571,122792
109564,122825
109598,122805
109607,122846
109615,122805
109616,122826
109655,122851
109675,122840
109682,122879
109685,122848
109732,122882
109712,122904
109737,122843
109751,122889
109749,122899
109712,122899
109752,122872
109769,122877
109767,122902
109785,122862
109793,122918
109751,122892
109831,122891
109779,122943
109837,122907
109849,122939
109842,122892
109887,122949
109887,122938
109958,122945
109957,123010
109976,122982
110021,123011
110044,123009
110041,123025
110055,123028
110108,123038
110077,123042
110082,123018
110148,123081
110105,123073
110130,123037
110132,123085
110155,123044
110172,123093
110144,123070
110224,123096
110213,123113
109752,122872
110257,123101
110297,123141
110282,123168
110336,123142
110393,123181
110401,123186
110481,123215
110461,123255
110506,123252
110540,123242
110604,123285
110664,123320
110643,123314
110696,123343
110736,123395
110756,123349
110791,123392
110802,123410
110844,123419
110855,123430
110930,123445
110944,123481
110978,123453
110993,123488
111005,123498
111063,123523
111047,123551
111120,123530
111142,123571
111153,123525
111192,123603
111201,123576
111208,123596
111243,123589
111238,123618
111262,123617
111253,123611
111282,123640
111301,123604
111355,123665
111358,123655
111381,123639
111380,123695
111403,123671
111445,123702
111440,123707
111494,123693
111480,123734
111497,123691
111543,123754
111529,123727
111547,123740
111523,123739
111554,123736
111550,123725
111554,123770
111554,123736
111560,123719
111561,123737
111508,123709
111533,123685
111511,123723
111462,123631
111412,123638
111284,123577
111186,123483
111020,123425
110816,123250
110621,123181
110394,123049
110139,122881
109811,122739
109513,122609
109213,122392
109007,122318
108722,122161
108538,122054
108343,122001
108210,121874
108103,121838
107995,121772
107938,121725
107829,121711
107774,121647
107728,121633
107695,121604
107643,121581
107635,121581
107617,121596
107584,121545
107597,121572
107575,121583
107572,121548
107612,121596
107600,121587
107618,121570
107658,121627
107652,121570
107683,121623
107668,121598
107718,121622
107689,121649
107711,121635
107713,121647
107769,121662
107714,121642
107751,121610
107707,121630
107739,121661
107722,121629
107678,121632
107675,121608
107673,121598
107686,121587
107633,121576
107662,121617
107623,121598
107631,121574
107626,121585
107665,121581
107676,121621
107669,121597
107705,121592
107705,121601
107756,121648
107788,121665
107824,121678
107848,121686
107875,121729
107916,121725
107964,121748
107929,121763
107962,121751
107990,121762
107968,121736
107970,121735
107985,121771
107953,121724
107936,121774
107947,121702
107919,121705
107887,121705
107896,121687
107913,121691
107873,121670
107897,121660
107845,121670
107839,121635
107856,121673
107805,121632
107822,121644
107792,121649
107813,121604
107806,121659
107807,121629
107764,121617
107841,121654
107823,121640
107865,121648
107830,121680
107851,121644
107909,121685
107905,121682
107977,121706
107996,121755
108041,121725
108104,121796
108113,121807
108215,121836
108227,121882
108285,121869
108369,121910
108392,121917
108486,122003
108489,121986
108563,122002
108583,122074
108598,122029
108682,122101
108689,122092
108768,122110
108739,122141
108828,122171
108857,122168
108893,122220
108905,122173
108976,122235
108952,122238
109011,122267
109052,122254
109057,122280
109100,122277
109161,122298
109153,122357
109219,122316
109240,122367
109260,122381
109334,122417
109344,122441
109398,122431
109427,122483
109464,122447
109509,122500
109496,122472
109559,122507
109525,122534
109575,122517
109591,122542
109572,122559
109594,122542
109575,122519
109617,122544
109608,122546
109613,122549
109623,122566
109603,122514
109644,122553
109598,122562
109621,122521
109661,122570
109632,122555
109669,122559
109689,122589
109684,122582
109690,122590
109735,122602
109758,122631
109765,122658
109842,122625
109844,122688
109860,122670
109915,122694
109947,122687
110007,122747
110009,122778
110044,122739
110112,122804
110099,122807
110172,122830
110203,122851
110220,122859
110237,122862
110295,122876
110322,122900
110331,122918
110337,122882
110360,122933
110353,122912
110433,122949
110413,122974
110446,122934
110488,122993
110487,122959
110532,123017
110549,123004
110610,123011
110621,123080
110689,123055
110713,123070
110786,123121
110806,123147
110844,123140
110922,123194
110943,123177
110984,123229
111005,123247
111084,123253
111116,123320
111133,123263
111212,123313
111181,123350
111229,123329
111298,123397
111284,123349
111323,123366
111314,123375
111358,123395
111354,123420
111384,123387
111400,123434
111394,123400
111354,123419
111350,123376
111381,123403
111378,123387
111347,123356
111379,123368
111339,123416
111334,123376
111381,123395
111324,123406
111362,123371
111372,123396
111375,123380
111393,123409
111432,123397
111429,123430
111423,123394
111491,123426
111465,123462
111494,123446
111542,123471
111541,123427
111549,123471
111560,123473
111613,123510
111636,123513
111671,123534
111651,123549
111705,123554
111702,123543
111741,123582
111739,123600
111786,123575
111827,123633
111805,123601
111841,123619
111854,123663
111883,123636
111922,123690
111916,123669
111951,123672
111968,123716
111955,123687
112055,123717
112018,123721
112033,123750
112077,123749
112093,123753
112070,123742
112088,123722
112071,123723
112011,123677
111931,123622
111848,123587
111666,123502
111523,123381
111351,123303
111130,123143
110926,123055
110713,122924
110497,122771
110281,122692
110088,122563
109890,122497
109704,122365
109446,122249
109229,122124
109108,122049
108944,122007
108799,121893
108742,121872
108603,121810
108533,121767
108497,121780
108447,121706
108429,121726
108396,121684
108384,121709
108383,121696
108422,121709
108420,121685
108449,121761
108459,121754
108455,121749
108485,121738
108524,121786
108519,121802
108557,121781
108612,121841
108595,121835
108645,121824
108639,121885
108656,121836
108693,121874
108666,121851
108695,121853
108696,121878
108679,121868
108677,121876
108706,121885
108640,121837
108671,121853
108670,121848
108642,121865
108656,121840
108704,121858
108658,121853
108685,121845
108731,121884
108707,121869
108753,121875
108757,121896
108794,121891
108841,121966
108840,121951
108877,121974
108924,121968
108916,121995
108905,122002
108942,121989
108959,122016
108945,122004
108972,121979
108956,122025
108955,121979
108954,122010
108934,121964
108901,121986
108860,121938
108871,121906
108837,121954
108813,121887
108777,121880
108758,121900
108707,121877
108699,121880
108667,121818
108668,121797
108611,121834
108602,121783
108633,121818
108566,121781
108583,121753
108584,121782
108586,121745
108606,121804
108600,121769
108649,121769
108622,121786
108645,121796
108686,121833
108686,121834
108733,121825
108699,121845
108749,121858
108788,121896
108795,121885
108861,121902
108880,121953
108925,121957
109003,122000
108985,122009
109052,121993
109135,122087
109165,122089
109229,122120
109273,122116
109311,122190
109380,122192
109411,122214
109464,122252
109523,122253
109533,122315
109584,122276
109636,122322
109627,122327
109681,122348
109696,122347
109712,122381
109716,122340
109749,122395
109738,122405
109774,122379
109778,122398
109830,122404
109838,122414
109839,122427
109846,122421
109885,122451
109901,122467
109941,122464
109961,122522
109986,122464
110015,122518
110016,122532
110042,122512
110057,122536
110040,122492
110054,122548
110035,122515
110078,122507
110050,122510
110085,122555
110047,122560
110043,122535
110084,122514
110074,122534
110077,122501
110086,122549
110089,122547
110114,122533
110108,122567
110086,122508
110163,122561
110113,122585
110155,122557
110190,122600
110193,122561
110201,122587
110209,122596
110234,122601
110235,122599
110238,122619
110254,122612
110285,122610
110278,122615
110329,122624
110335,122628
110390,122656
110360,122688
110368,122653
110420,122704
110403,122715
110434,122682
110470,122722
110454,122700
110439,122714
110465,122707
110475,122708
110509,122739
110516,122716
110572,122760
110542,122763
110586,122772
110608,122812
110662,122790
110707,122807
110702,122827
110775,122856
110763,122890
110805,122907
110805,122907
110867,122932
110922,122935
110925,122933
110944,122950
110919,122973
110991,122958
110985,123002
110970,122935
111034,122977
111000,123005
111041,122987
111081,123022
111063,122974
111095,123044
111096,123035
111177,123037
111153,123089
111190,123065
111204,123066
111206,123078
111241,123090
111280,123133
111274,123083
111296,123138
111288,123134
111369,123154
111358,123161
111411,123164
111413,123202
111419,123160
111481,123207
111469,123231
111475,123205
111527,123229
111525,123247
111551,123256
111555,123244
111579,123224
111617,123255
111587,123277
111605,123260
111663,123311
111620,123268
111664,123291
111641,123326
111696,123300
111706,123344
111702,123302
111765,123340
111761,123361
111759,123340
111810,123367
111841,123386
111836,123396
111823,123392
111869,123387
111931,123447
111904,123415
111946,123425
111977,123452
112000,123434
112027,123496
112027,123474
112086,123527
112070,123534
112100,123508
112147,123575
112135,123533
112175,123563
112192,123583
112195,123592
112250,123617
112252,123561
112223,123598
112294,123618
112259,123605
112302,123600
112297,123630
112228,123577
112225,123555
112119,123525
111995,123390
111872,123354
111659,123220
111501,123103
111294,123013
111085,122882
110885,122772
110646,122666
110428,122545
110172,122390
109952,122243
109697,122159
109428,121978
109256,121929
109037,121804
108896,121731
108720,121680
108645,121581
108559,121581
108460,121542
108440,121505
108386,121464
108385,121474
108342,121501
108349,121499
108379,121469
108345,121480
108367,121469
108392,121508
108355,121487
108422,121491
108401,121544
108390,121510
108464,121532
108428,121542
108480,121534
108505,121594
108475,121520
108516,121598
108534,121557
108549,121592
108577,121582
108570,121588
108612,121581
108554,121595
108599,121600
108572,121578
108596,121572
108540,121580
108581,121582
108551,121569
108544,121571
108527,121556
108570,121581
108578,121568
108553,121587
108606,121600
108630,121593
108664,121644
108723,121653
108774,121687
108847,121702
108855,121743
108951,121779
108965,121816
109012,121833
109033,121839
109066,121855
109105,121844
109112,121863
109104,121884
109088,121857
109101,121860
109060,121861
109049,121823
109012,121795
108980,121782
108967,121752
108898,121755
108867,121697
108843,121715
108770,121670
108770,121664
108710,121669
108671,121595
108689,121636
108614,121586
108620,121565
108571,121570
108558,121550
108568,121571
108560,121576
108565,121542
108552,121560
108554,121569
108591,121577
108631,121599
108632,121581
108684,121608
108706,121647
108750,121635
108809,121682
108813,121692
108902,121721
108906,121779
108953,121737
109041,121790
109035,121846
109109,121833
109116,121841
109196,121911
109182,121904
109266,121900
109296,121941
109312,121921
109387,122001
109357,121989
109462,122004
109499,122042
109478,122042
109546,122068
109569,122105
109608,122077
109646,122151
109643,122105
109733,122157
109702,122170
109796,122177
109792,122226
109855,122207
109914,122254
109903,122268
109971,122273
110025,122330
110042,122281
110096,122360
110103,122365
110183,122369
110186,122409
110215,122362
110264,122448
110266,122432
110288,122434
110334,122460
110376,122479
110375,122474
110390,122476
110447,122505
110447,122536
110471,122503
110510,122571
110515,122541
110593,122584
110590,122604
110601,122563
110629,122621
110628,122599
110688,122611
110684,122647
110690,122638
110746,122653
110725,122695
110756,122644
110797,122677
110799,122723
110818,122704
110884,122728
110899,122753
110950,122756
110972,122810
111002,122808
111084,122868
111111,122861
111168,122868
111205,122936
111255,122927
111325,122965
111339,122975
111376,122984
111437,123045
111463,123031
111463,123040
111553,123075
111567,123135
111602,123091
111667,123164
111656,123146
111725,123190
111743,123207
111821,123213
111825,123251
111843,123218
111909,123272
111932,123270
111950,123292
111968,123308
112014,123312
112039,123333
112047,123358
112069,123341
112089,123374
112102,123348
112146,123379
112154,123400
112184,123374
112214,123430
112200,123378
112256,123422
112216,123445
112245,123436
112270,123463
112278,123435
112300,123480
112295,123485
112306,123461
112355,123448
112350,123495
112373,123493
112346,123497
112405,123518
112395,123522
112401,123483
112414,123519
112432,123502
112448,123507
112473,123526
112430,123478
112521,123532
112482,123535
112467,123529
112495,123527
112533,123527
112524,123562
112510,123527
112571,123543
112550,123575
112550,123555
112601,123599
112562,123574
112618,123593
112588,123582
112626,123559
112615,123605
112613,123618
112632,123568
112648,123604
112639,123594
112649,123580
112634,123609
112665,123638
112639,123611
112692,123612
112677,123639
112683,123588
112715,123628
112672,123639
112696,123591
112727,123632
112687,123609
112720,123604
112727,123630
112743,123593
112742,123633
112754,123632
112754,123617
112746,123638
112762,123658
112767,123623
112752,123625
112782,123618
112806,123650
112765,123627
112800,123639
112795,123668
112784,123631
112818,123643
112793,123665
112831,123597
112823,123676
112797,123635
112848,123659
112843,123651
112878,123633
112815,123655
112831,123637
112877,123675
112839,123638
112859,123639
112808,123657
112806,123597
112786,123611
112703,123523
112607,123496
112388,123354
112147,123230
111944,123101
111679,122987
111485,122865
111351,122762
111235,122717
111191,122699
111072,122647
111020,122577
110922,122589
110824,122490
110784,122467
110677,122449
110634,122395
110566,122380
110511,122334
110468,122330
110419,122293
110441,122296
110388,122334
110408,122296
110388,122334
110424,122335
110400,122323
110448,122364
110506,122380
110517,122365
110534,122411
110554,122436
110609,122387
110614,122462
110611,122437
110660,122449
110646,122486
110610,122416
110660,122454
110617,122461
110624,122438
110648,122452
110625,122440
110649,122426
110618,122443
110613,122448
110662,122421
110623,122471
110606,122413
110691,122490
110674,122463
110680,122489
110718,122483
110764,122507
110767,122502
110844,122542
110837,122577
110863,122555
110932,122615
110961,122636
110996,122624
111022,122653
111047,122681
111062,122712
111075,122673
111081,122710
111067,122685
111092,122683
111092,122705
111100,122664
111097,122710
111089,122687
111109,122702
111035,122682
111073,122674
111038,122663
111015,122629
110981,122633
110944,122579
110924,122565
110902,122554
110817,122553
110791,122474
110812,122510
110727,122499
110697,122441
110699,122473
110657,122408
110675,122427
110642,122428
110701,122417
110660,122488
110697,122450
110725,122484
110804,122490
110836,122537
110825,122536
110912,122572
110905,122631
110969,122589
111031,122645
111025,122646
111051,122664
111085,122676
111113,122728
111147,122709
111215,122737
111192,122775
111208,122742
111281,122796
111281,122798
111276,122802
111295,122832
111360,122792
111390,122870
111393,122854
111430,122847
111447,122886
111462,122856
111497,122915
111473,122863
111561,122896
111516,122916
111549,122891
111548,122951
111542,122923
111591,122944
111585,122936
111600,122938
111579,122942
111614,122962
111641,122948
111649,122960
111680,122968
111670,122977
111689,122985
111658,122974
111706,123011
111721,122987
111697,122998
111713,122986
111701,122979
111697,122965
111677,122965
111692,122980
111709,122949
111679,122972
111698,122975
111705,122991
111715,122973
111692,122987
111728,123007
111730,123013
111756,123021
111725,123005
111744,123005
111771,123039
111754,123020
111802,122994
111794,123048
111768,122983
111797,123042
111798,123011
111810,123025
111794,123037
111760,123017
111833,123030
111796,123048
111810,123000
111838,123065
111812,123020
111859,123058
111813,123051
111864,123023
111851,123067
111860,123030
111833,123070
111884,123049
111890,123047
111911,123086
111907,123064
111914,123104
111915,123068
111965,123102
111945,123093
111972,123071
112004,123141
111979,123109
112044,123118
112048,123171
112062,123114
112098,123186
112071,123168
112125,123168
112115,123179
112143,123171
112143,123189
112124,123163
112188,123244
112202,123229
112169,123221
112189,123210
112189,123225
112214,123218
112195,123238
112181,123215
112207,123230
112216,123252
112265,123222
112234,123278
112228,123188
112291,123276
112262,123290
112305,123273
112340,123268
112350,123283
112332,123291
112391,123291
112377,123341
112415,123309
112459,123365
112435,123321
112458,123367
112469,123380
112498,123350
112504,123390
112518,123381
112503,123375
112526,123400
112519,123367
112566,123393
112577,123364
112583,123393
112568,123387
112584,123403
112551,123421
112612,123382
112615,123424
112598,123392
112644,123410
112603,123457
112632,123381
112690,123451
112641,123417
112708,123431
112670,123445
112698,123434
112722,123473
112698,123476
112721,123470
112772,123475
112740,123478
112757,123495
112749,123494
112805,123481
112773,123509
112778,123484
112827,123525
112794,123500
112820,123495
112846,123538
112825,123504
112870,123535
112845,123533
112872,123550
112880,123543
112887,123535
112901,123586
112894,123540
112905,123558
112881,123574
112928,123536
112917,123570
112900,123513
112968,123549
112919,123563
112966,123564
112939,123593
112989,123588
112961,123610
112991,123570
112979,123572
112977,123571
112986,123591
113010,123591
112999,123577
113022,123598
112948,123574
112930,123545
112829,123511
112696,123372
112508,123312
112248,123132
112030,123005
111776,122912
111588,122743
111483,122709
111317,122632
111196,122537
111065,122473
110925,122397
110772,122332
110687,122261
110577,122227
110490,122175
110372,122154
110352,122136
110268,122081
110254,122063
110168,122042
110184,122064
110194,122076
110178,122089
110218,122093
110240,122090
110268,122089
110292,122133
110311,122148
110362,122141
110384,122217
110447,122203
110474,122251
110527,122243
110527,122259
110557,122281
110571,122293
110628,122310
110622,122334
110634,122326
110653,122332
110685,122363
110700,122388
110726,122332
110725,122385
110725,122347
110764,122396
110784,122376
110803,122401
110820,122430
110853,122406
110875,122478
110870,122435
110945,122495
110929,122503
110979,122485
111006,122522
111004,122504
111050,122557
111055,122548
111117,122546
111088,122595
111126,122577
111131,122540
111150,122590
111129,122591
111116,122590
111140,122557
111124,122609
111110,122549
111143,122571
111098,122589
111097,122513
111119,122586
111067,122545
111091,122555
111060,122537
111071,122493
111049,122546
111051,122513
111004,122475
110967,122497
111014,122497
110981,122463
110942,122467
110959,122435
110915,122474
110880,122400
110900,122447
110879,122412
110884,122384
110904,122423
110889,122428
110886,122395
110936,122443
110884,122422
110944,122459
110946,122433
111021,122475
111055,122551
111078,122510
111134,122552
111162,122599
111245,122602
111252,122654
111286,122634
111401,122681
111378,122719
111426,122699
111472,122762
111483,122760
111548,122788
111538,122775
111595,122815
111620,122792
111657,122825
111635,122856
111705,122865
111710,122905
111728,122849
111770,122933
111755,122906
111798,122917
111778,122927
111804,122907
111816,122940
111806,122935
111893,122947
111856,122976
111876,122928
111908,122991
111925,122989
111943,122956
111948,122968
111967,123000
111987,122990
111980,123034
111998,122986
112004,122999
112012,123018
112034,122999
112077,123048
112031,123034
112069,123035
112071,123060
112064,123030
112119,123042
112077,123065
112091,123056
112109,123074
112107,123059
112124,123073
112126,123058
112146,123061
112165,123120
112164,123041
112181,123094
112154,123069
112206,123096
112182,123130
112206,123104
112265,123153
112209,123094
112229,123123
112255,123148
112247,123110
112233,123149
112319,123157
112271,123161
112282,123111
112300,123158
112279,123142
112336,123161
112333,123176
112348,123146
112361,123198
112350,123172
112391,123180
112376,123223
112394,123160
112395,123227
112372,123193
112416,123217
112415,123206
112394,123232
112416,123230
112452,123208
112427,123209
112454,123197
112463,123247
112454,123236
112513,123209
112474,123266
112494,123221
112539,123248
112512,123267
112520,123223
112543,123301
112539,123273
112572,123270
112571,123289
112556,123309
112608,123296
112616,123320
112631,123274
112647,123339
112638,123299
112681,123346
112618,123345
112697,123317
112690,123372
112697,123306
112711,123363
112692,123356
112724,123356
112744,123335
112767,123377
112754,123358
112791,123388
112792,123353
112797,123392
112762,123351
112844,123365
112790,123398
112807,123351
112860,123411
112813,123402
112843,123380
112830,123408
112850,123368
112873,123407
112849,123360
112896,123413
112869,123426
112893,123402
112900,123409
112891,123414
112881,123399
112914,123402
112903,123447
112902,123396
112966,123422
112918,123431
112918,123412
112960,123445
112942,123428
112975,123434
112967,123480
112981,123415
112973,123457
112959,123445
112999,123450
112996,123459
112989,123448
113025,123483
112987,123474
113058,123485
113015,123502
113043,123464
113047,123521
113032,123487
113067,123495
113032,123488
113084,123497
113039,123519
113066,123491
113074,123493
113078,123503
113075,123523
113091,123513
113074,123512
113106,123516
113085,123490
113110,123541
113081,123489
113098,123510
113061,123503
113040,123465
112953,123441
112822,123327
112695,123257
112422,123103
112204,122981
111989,122883
111811,122754
111655,122690
111529,122621
111449,122556
111309,122475
111266,122455
111154,122398
110992,122359
110933,122273
110891,122269
110763,122223
110730,122184
110691,122187
110618,122128
110603,122137
110542,122122
110554,122100
110518,122132
110540,122109
110526,122123
110564,122141
110575,122156
110605,122134
110648,122173
110635,122222
110703,122222
110723,122245
110726,122224
110770,122258
110793,122276
110786,122302
110821,122281
110850,122329
110835,122297
110907,122310
110888,122360
110917,122328
110936,122324
110925,122343
110921,122342
110916,122353
110907,122297
110928,122343
110919,122316
110937,122328
110903,122321
110933,122327
110912,122342
110945,122332
110983,122377
110977,122366
111017,122378
111006,122377
111043,122395
111056,122435
111082,122431
111109,122430
111080,122435
111074,122438
111099,122429
111106,122451
111073,122401
111097,122435
111082,122446
111094,122398
111090,122438
111050,122390
111085,122390
111021,122413
111042,122376
111039,122381
110998,122370
110991,122367
111017,122361
110940,122344
110990,122323
110922,122367
110918,122280
110936,122320
110909,122287
110929,122328
110907,122309
110940,122317
110910,122350
110942,122304
110953,122347
110949,122313
111012,122347
110995,122361
111043,122409
111066,122397
111149,122421
111169,122450
111177,122434
111274,122503
111261,122537
111297,122537
111363,122575
111388,122556
111411,122625
111451,122610
111533,122650
111521,122649
111583,122656
111583,122700
111613,122687
111610,122700
111659,122699
111671,122731
111658,122718
111717,122719
111682,122767
111702,122716
111717,122766
111707,122732
111752,122738
111712,122772
111763,122729
111735,122784
111737,122716
111746,122753
111717,122774
111737,122764
111770,122739
111749,122755
111807,122777
111792,122770
111780,122807
111817,122744
111785,122778
111807,122771
111837,122810
111821,122774
111863,122803
111862,122814
111846,122788
111889,122845
111849,122797
111880,122813
111922,122832
111905,122824
111916,122823
111911,122824
111937,122842
111960,122831
111966,122865
112006,122865
112034,122908
111998,122867
112088,122898
112050,122918
112092,122911
112109,122947
112131,122913
112142,122932
112151,122942
112169,122941
112199,122945
112170,122988
112210,122953
112240,123020
112223,122962
112272,123012
112242,122986
112336,123007
112297,123056
112311,123024
112360,123058
112367,123037
112392,123065
112427,123092
112410,123055
112435,123076
112434,123079
112447,123070
112482,123106
112465,123099
112506,123112
112508,123121
112519,123099
112527,123075
112555,123128
112502,123121
112564,123131
112593,123160
112548,123117
112582,123145
112565,123164
112616,123129
112613,123180
112612,123149
112618,123184
112609,123158
112619,123155
112654,123163
112649,123224
112681,123157
112668,123223
112664,123165
112713,123209
112663,123212
112668,123188
112711,123223
112694,123183
112709,123249
112691,123234
112679,123219
112734,123229
112734,123214
112738,123219
112712,123182
112721,123225
112769,123238
112765,123203
112785,123247
112755,123210
112790,123249
112772,123263
112767,123208
112826,123270
112802,123284
112811,123252
112808,123275
112844,123236
112854,123296
112832,123262
112832,123259
112883,123264
112878,123270
112857,123302
112877,123259
112917,123322
112898,123309
112913,123293
112938,123319
112922,123282
112938,123319
112961,123330
112953,123295
112967,123332
112950,123311
112990,123316
112968,123339
113006,123336
112974,123320
113027,123354
113002,123353
113021,123322
113024,123354
113016,123333
113034,123337
113044,123353
113065,123332
113055,123364
113109,123392
113056,123383
113057,123346
113113,123384
113063,123382
113073,123355
113065,123372
113053,123346
113013,123301
112937,123297
112768,123181
112634,123080
112371,122985
112145,122793
111980,122750
111810,122642
111707,122555
111584,122510
111478,122426
111394,122395
111258,122310
111171,122288
110995,122208
110881,122139
110806,122089
110684,122062
110589,121987
110506,121948
110481,121941
110445,121945
110380,121918
110408,121902
110389,121928
110418,121913
110446,121952
110447,121946
110508,121970
110519,122026
110579,121987
110639,122047
110646,122075
110679,122065
110711,122111
110757,122112
110812,122155
110850,122170
110825,122183
110918,122206
110943,122208
110944,122228
111004,122262
111025,122279
111067,122286
111110,122315
111132,122334
111192,122330
111179,122359
111241,122400
111230,122391
111314,122424
111312,122406
111381,122455
111374,122450
111402,122489
111471,122501
111498,122542
111515,122518
111560,122537
111556,122582
111630,122585
111617,122593
111670,122580
111671,122638
111662,122572
111684,122630
111683,122628
111668,122610
111629,122596
111616,122572
111635,122595
111567,122559
111572,122554
111531,122555
111515,122491
111479,122493
111441,122463
111446,122467
111381,122484
111347,122401
111367,122451
111290,122378
111276,122379
111230,122365
111211,122372
111179,122336
111158,122335
111126,122282
111123,122290
111081,122272
111122,122267
111071,122289
111053,122282
111059,122305
111115,122276
111164,122340
111139,122316
111196,122345
111229,122387
111280,122380
111319,122421
111358,122444
111401,122449
111403,122481
111471,122504
111480,122547
111513,122507
111549,122565
111544,122528
111588,122571
111608,122591
111643,122588
111635,122615
111662,122598
111671,122647
111724,122655
111699,122647
111764,122649
111771,122661
111797,122666
111812,122696
111828,122656
111865,122705
111891,122751
111907,122707
111954,122739
111966,122750
111979,122748
111963,122793
112010,122776
112072,122827
112062,122813
112091,122829
112091,122837
112119,122831
112103,122840
112123,122835
112109,122845
112146,122846
112152,122832
112111,122835
112142,122850
112125,122835
112125,122810
112162,122823
112140,122857
112140,122822
112146,122826
112150,122868
112164,122826
112192,122863
112162,122840
112205,122861
112216,122844
112228,122872
112238,122858
112235,122905
112220,122858
112252,122886
112227,122894
112251,122869
112237,122897
112225,122850
112283,122908
112236,122895
112288,122894
112254,122855
112260,122886
112297,122916
112282,122882
112277,122897
112247,122900
112256,122877
112306,122926
112251,122921
112298,122885
112278,122919
112281,122876
112289,122922
112280,122909
112348,122911
112323,122938
112343,122889
112396,122968
112359,122947
112405,122939
112406,122973
112429,122950
112449,123001
112497,122976
112507,123026
112508,123023
112516,123053
112537,123015
112603,123030
112547,123025
112612,123045
112636,123080
112626,123049
112648,123086
112648,123086
112706,123073
112678,123122
112700,123091
112725,123075
112720,123133
112720,123103
112769,123107
112739,123151
112736,123103
112773,123145
112743,123125
112805,123136
112793,123167
112822,123119
112820,123169
112843,123163
112832,123158
112881,123169
112887,123208
112881,123180
112862,123197
112910,123169
112907,123212
112944,123209
112943,123225
112912,123184
112970,123222
112941,123215
112976,123207
112960,123268
112952,123207
112999,123256
112970,123229
112998,123224
113000,123265
112990,123214
113013,123269
113048,123241
113047,123256
113017,123253
113040,123242
113055,123276
113038,123255
113088,123249
113055,123305
113064,123253
113091,123309
113032,123271
113068,123254
113051,123271
112985,123231
112969,123215
112845,123129
112706,123020
112458,122912
112231,122787
112006,122669
111866,122572
111722,122516
111620,122397
111501,122399
111374,122271
111315,122260
111150,122193
111017,122135
110882,122046
110782,122026
110683,121933
110642,121927
110505,121854
110450,121816
110402,121817
110356,121814
110343,121783
110318,121808
110302,121796
110360,121804
110346,121834
110375,121789
110404,121853
110419,121858
110476,121897
110493,121930
110556,121905
110588,121975
110630,121959
110680,122026
110721,122023
110782,122051
110841,122074
110884,122119
110904,122124
110961,122153
110972,122191
111022,122182
111045,122210
111037,122195
111111,122204
111095,122248
111107,122201
111174,122267
111132,122260
111175,122254
111196,122294
111238,122287
111269,122330
111347,122367
111331,122351
111389,122398
111444,122408
111514,122463
111493,122427
111544,122473
111541,122492
111576,122477
111622,122485
111633,122522
111585,122513
111592,122457
111608,122527
111556,122485
111586,122485
111570,122494
111568,122490
111548,122454
111560,122466
111541,122461
111478,122443
111510,122432
111472,122432
111475,122396
111455,122422
111420,122380
111449,122397
111388,122395
111393,122354
111379,122386
111371,122339
111359,122375
111323,122316
111344,122345
111332,122345
111345,122332
111375,122332
111350,122351
111375,122329
111405,122375
111399,122407
111414,122344
111469,122408
111448,122405
111528,122428
111514,122461
111567,122421
111623,122480
111603,122471
111674,122514
111699,122549
111725,122528
111767,122582
111783,122600
111820,122605
111833,122603
111852,122611
111906,122610
111897,122679
111896,122668
111921,122646
111959,122687
111954,122690
111969,122651
111952,122708
111956,122645
112002,122709
111965,122695
111985,122679
111980,122682
112009,122716
111971,122690
112008,122694
112025,122736
112025,122715
112031,122719
112017,122695
112029,122693
112003,122713
112033,122718
112041,122740
112036,122678
111999,122707
112021,122706
112054,122711
112043,122701
112064,122712
112079,122721
112040,122693
112096,122716
112037,122732
112094,122694
112102,122730
112057,122707
112075,122714
112111,122737
112095,122697
112111,122723
112092,122717
112136,122722
112141,122787
112149,122717
112161,122757
112169,122805
112188,122771
112213,122781
112203,122791
112224,122807
112209,122798
112245,122803
112241,122788
112287,122807
112275,122835
112276,122791
112318,122835
112287,122849
112319,122816
112385,122863
112343,122834
112366,122848
112373,122852
112427,122890
112391,122891
112437,122874
112461,122916
112421,122877
112470,122909
112457,122933
112497,122911
112511,122958
112460,122899
112494,122919
112482,122926
112530,122930
112490,122937
112539,122953
112508,122938
112525,122926
112538,122953
112555,122950
112523,122968
112542,122928
112575,122979
112561,122933
112606,122967
112570,122987
112611,122969
112624,123012
112606,122984
112650,122982
112658,123014
112643,122973
112695,123059
112694,123013
112707,123058
112729,122999
112734,123036
112703,123056
112744,123061
112766,123080
112781,123043
112829,123091
112786,123048
112832,123108
112806,123091
112842,123070
112831,123114
112834,123066
112896,123097
112867,123129
112891,123098
112897,123110
112882,123113
112889,123122
112913,123122
112908,123109
112962,123122
112946,123155
112945,123121
112977,123144
112938,123134
112998,123144
112964,123167
112974,123147
113010,123147
113011,123197
112998,123166
113041,123176
113064,123171
113065,123203
113029,123148
113062,123203
113074,123212
113105,123223
113070,123239
113100,123197
113124,123250
113097,123201
113124,123236
113106,123242
113132,123222
113099,123252
113094,123187
113085,123209
112994,123160
112930,123094
112813,123011
112549,122918
112343,122765
112102,122649
111930,122515
111767,122459
111628,122358
111541,122295
111388,122268
111230,122149
111130,122096
110925,122007
110787,121903
110688,121905
110516,121775
110434,121730
110326,121684
110197,121662
110155,121599
110118,121597
110060,121598
110044,121592
110033,121600
110027,121553
110072,121607
110039,121599
110124,121650
110126,121646
110161,121669
110159,121665
110203,121655
110249,121744
110257,121713
110313,121759
110352,121759
110414,121803
110425,121761
110478,121827
110479,121828
110553,121842
110545,121876
110576,121868
110630,121888
110596,121890
110612,121897
110630,121911
110604,121858
110607,121891
110571,121846
110621,121874
110572,121883
110599,121875
110594,121881
110548,121866
110586,121851
110590,121883
110660,121880
110678,121950
110677,121898
110753,121949
110760,122011
110815,121991
110867,122058
110860,122047
110922,122062
110961,122109
110986,122072
111017,122108
111003,122113
111027,122105
111022,122114
111008,122114
110998,122107
110991,122078
110977,122076
110943,122071
110925,122044
110917,122038
110877,122033
110870,122014
110853,122006
110800,121981
110784,121959
110768,121961
110757,121942
110758,121959
110769,121946
110741,121946
110763,121948
110789,121961
110799,121964
110806,122000
110875,122020
110892,122037
110920,122021
110968,122086
110968,122073
111047,122077
111087,122163
111129,122139
111231,122193
111247,122214
111292,122235
111335,122225
111350,122277
111385,122285
111484,122312
111444,122361
111504,122319
111579,122378
111540,122384
111590,122401
111613,122424
111650,122397
111678,122438
111645,122430
111710,122433
111705,122492
111740,122449
111767,122483
111783,122470
111792,122497
111771,122476
111819,122508
111792,122532
111837,122502
111840,122532
111829,122505
111845,122555
111858,122542
111909,122543
111945,122584
111904,122564
111945,122557
111954,122620
111990,122574
111985,122623
112005,122620
112007,122640
112003,122624
112057,122635
112044,122649
112064,122612
112050,122654
112031,122628
112108,122666
112062,122676
112095,122628
112105,122674
112065,122653
112128,122674
112122,122663
112113,122690
112124,122659
112157,122683
112126,122676
112153,122677
112179,122674
112194,122697
112150,122714
112189,122684
112214,122714
112173,122673
112230,122721
112183,122729
112232,122708
112228,122746
112234,122701
112270,122751
112254,122730
112295,122738
112289,122748
112310,122807
112305,122755
112322,122783
112331,122812
112340,122778
112377,122769
112357,122764
112419,122811
112359,122816
112379,122789
112413,122850
112402,122804
112469,122824
112440,122826
112470,122807
112474,122870
112499,122853
112502,122872
112525,122850
112514,122883
112544,122892
112569,122896
112542,122869
112569,122917
112566,122925
112606,122892
112596,122938
112595,122886
112655,122922
112626,122934
112668,122931
112644,122946
112680,122911
112694,122952
112704,122958
112708,122915
112749,122969
112719,122996
112706,122954
112737,122958
112746,122995
112723,122956
112777,122980
112747,122966
112785,122964
112749,123010
112786,122952
112829,123027
112779,122955
112804,122997
112807,123000
112817,122993
112815,122961
112841,122980
112801,123013
112833,123018
112870,123011
112860,123052
112841,123015
112897,123012
112860,123060
112844,123010
112926,123074
112875,123021
112923,123030
112885,123065
112887,123039
112934,123055
112930,123046
112931,123053
112980,123063
112950,123075
112942,123039
112998,123075
112947,123096
112987,123060
113018,123091
112985,123055
113024,123075
112983,123090
113026,123097
113055,123084
113034,123132
113036,123090
113062,123107
113066,123097
113096,123124
113083,123138
113114,123155
113121,123140
113111,123181
113071,123139
113102,123163
113058,123146
113062,123113
112981,123111
112832,122963
112658,122906
112381,122752
112195,122577
111960,122535
111776,122367
111655,122331
111515,122265
111323,122161
111159,122060
110954,121933
110787,121817
110634,121771
110470,121700
110360,121612
110191,121575
110054,121472
110019,121428
109888,121439
109828,121377
109827,121405
109746,121354
109770,121351
109762,121356
109759,121367
109770,121339
109768,121372
109816,121373
109827,121400
109850,121437
109900,121424
109914,121483
109926,121466
110012,121512
110034,121512
110030,121518
110091,121539
110106,121572
110093,121531
110158,121568
110134,121597
110147,121558
110164,121574
110181,121574
110175,121606
110152,121564
110195,121594
110160,121600
110185,121569
110188,121611
110180,121554
110226,121610
110195,121609
110248,121620
110245,121641
110311,121618
110322,121707
110341,121660
110408,121724
110442,121730
110539,121786
110535,121776
110604,121796
110610,121854
110609,121806
110678,121858
110622,121849
110639,121815
110667,121846
110615,121815
110625,121795
110559,121795
110528,121742
110528,121783
110482,121730
110483,121738
110407,121724
110427,121694
110379,121727
110343,121667
110385,121685
110314,121653
110328,121616
110304,121646
110310,121617
110266,121645
110283,121598
110294,121630
110282,121658
110297,121629
110311,121674
110290,121656
110323,121656
110341,121660
110371,121684
110387,121684
110412,121699
110459,121677
110463,121774
110493,121745
110596,121804
110577,121797
110666,121800
110676,121873
110720,121863
110785,121899
110789,121932
110865,121944
110883,121994
110923,121978
110993,122013
111021,122023
111064,122060
111156,122112
111146,122113
111179,122124
111227,122125
111292,122205
111288,122185
111379,122201
111363,122240
111393,122208
111460,122282
111438,122273
111499,122257
111517,122289
111528,122280
111559,122309
111562,122293
111617,122320
111606,122339
111652,122331
111631,122382
111652,122339
111688,122373
111628,122354
111674,122370
111654,122354
111688,122365
111664,122407
111673,122313
111699,122368
111663,122357
111721,122371
111704,122386
111739,122383
111719,122408
111742,122435
111735,122401
111808,122406
111757,122438
111776,122399
111839,122453
111804,122427
111823,122438
111811,122457
111825,122401
111847,122463
111836,122451
111868,122437
111886,122452
111849,122459
111904,122453
111886,122453
111901,122484
111878,122487
111876,122426
111882,122494
111884,122441
111924,122491
111897,122449
111980,122462
111925,122533
111957,122495
112026,122542
111982,122531
112046,122503
112031,122575
112054,122532
112095,122589
112094,122585
112095,122561
112109,122577
112103,122588
112140,122571
112150,122605
112117,122591
112164,122597
112169,122626
112190,122587
112204,122649
112182,122601
112249,122607
112226,122665
112228,122599
112259,122659
112252,122644
112299,122712
112284,122676
112289,122662
112322,122664
112358,122695
112349,122687
112389,122675
112351,122740
112397,122694
112432,122755
112422,122714
112451,122755
112443,122725
112471,122732
112499,122746
112488,122773
112480,122779
112476,122780
112489,122757
112529,122786
112506,122747
112541,122769
112554,122793
112563,122785
112568,122832
112576,122781
112631,122824
112596,122835
112611,122793
112641,122871
112631,122813
112659,122863
112652,122852
112681,122859
112695,122871
112714,122868
112672,122865
112698,122871
112723,122888
112741,122888
112727,122894
112754,122845
112741,122914
112763,122879
112790,122896
112778,122936
112790,122887
112829,122939
112788,122934
112839,122909
112848,122940
112849,122960
112889,122951
112870,122951
112890,122964
112917,122946
112893,123010
112916,122965
112956,122997
112906,122942
112936,122977
112899,122957
112945,122983
112886,122956
112853,122939
112791,122861
112674,122799
112462,122644
112221,122563
112038,122428
111855,122340
111670,122253
111546,122150
111458,122121
111267,121998
111125,121909
110956,121873
110802,121724
110654,121702
110469,121551
110354,121523
110208,121502
110127,121401
110056,121395
109962,121348
109925,121331
109877,121330
109861,121311
109826,121297
109796,121289
109818,121261
109832,121324
109797,121292
109856,121287
109827,121358
109840,121299
109903,121369
109874,121339
109911,121338
109914,121382
109933,121355
109957,121397
109972,121382
109949,121411
109968,121381
109931,121389
109934,121374
109909,121346
109924,121365
109868,121319
109869,121325
109838,121341
109851,121343
109793,121299
109828,121316
109832,121328
109801,121265
109832,121327
109821,121329
109865,121337
109868,121359
109919,121345
109976,121382
110029,121435
110057,121440
110135,121466
110157,121544
110214,121521
110293,121607
110305,121585
110390,121608
110388,121627
110442,121633
110433,121695
110442,121649
110494,121680
110474,121669
110479,121638
110501,121671
110514,121685
110484,121625
110513,121684
110474,121617
110508,121664
110471,121647
110495,121635
110503,121671
110472,121632
110534,121684
110488,121653
110522,121649
110498,121668
110530,121640
110543,121696
110563,121691
110575,121728
110636,121679
110666,121748
110690,121771
110680,121780
110749,121765
110788,121850
110830,121841
110876,121873
110919,121874
110972,121908
110984,121911
111037,121917
111076,121990
111097,121954
111170,121989
111183,122005
111255,122028
111239,122086
111284,122102
111356,122111
111377,122142
111446,122163
111508,122219
111550,122192
111602,122291
111605,122241
111689,122305
111689,122336
111748,122339
111793,122397
111858,122381
111839,122427
111883,122431
111921,122446
111908,122437
111906,122449
111926,122438
111928,122460
111955,122438
111922,122440
111950,122463
111906,122449
111926,122445
111908,122429
111944,122431
111947,122433
111912,122437
111941,122449
111933,122431
111946,122429
111969,122417
111948,122462
111977,122485
111985,122474
112009,122476
111981,122493
111996,122480
112053,122490
112029,122496
112054,122506
112065,122527
112074,122478
112096,122539
112066,122526
112131,122511
112120,122565
112146,122527
112159,122582
112172,122578
112163,122581
112196,122560
112252,122597
112208,122583
112250,122603
112246,122625
112296,122591
112311,122653
112304,122576
112346,122643
112294,122615
112316,122640
112351,122654
112345,122659
112370,122647
112402,122698
112418,122700
112383,122689
112440,122663
112493,122716
112466,122731
112477,122697
112516,122743
112523,122715
112552,122738
112515,122739
112577,122734
112555,122791
112566,122745
112630,122788
112570,122758
112604,122764
112605,122768
112638,122811
112599,122775
112623,122781
112637,122803
112638,122782
112661,122828
112663,122806
112730,122791
112692,122847
112699,122807
112761,122850
112706,122841
112738,122835
112758,122855
112751,122836
112779,122856
112774,122857
112751,122870
112773,122838
112802,122829
112817,122862
112794,122887
112804,122849
112846,122889
112829,122851
112817,122890
112824,122861
112889,122878
112819,122896
112848,122837
112870,122860
112891,122871
112907,122908
112895,122898
112882,122899
112884,122905
112910,122905
112926,122903
112927,122921
112920,122880
112934,122925
112903,122919
112956,122915
112931,122936
112954,122897
112976,122943
112940,122932
112970,122926
112968,122964
112998,122914
113006,122945
113001,122935
113010,122957
113020,122957
113014,122935
113011,122935
112998,122946
113028,122926
113075,122970
113034,122968
113052,122949
113072,122989
113046,122946
113060,122960
113056,122975
113105,122952
113073,123005
113071,122961
113066,122972
113090,123012
113072,122986
113051,122948
113087,122926
113047,122980
112995,122907
113014,122915
112876,122870
112746,122751
112531,122612
112318,122495
112042,122368
111885,122241
111669,122182
111552,122093
111456,122075
111349,121977
111216,121892
111080,121835
110915,121773
110829,121688
110742,121671
110615,121599
110549,121574
110466,121563
110457,121500
110368,121506
110314,121458
110329,121494
110290,121469
110312,121479
110323,121520
110365,121492
110366,121488
110403,121540
110408,121531
110464,121576
110479,121591
110498,121572
110550,121611
110553,121597
110595,121609
110576,121688
110586,121626
110634,121643
110596,121677
110570,121601
110626,121670
110599,121634
110609,121634
110579,121632
110568,121613
110543,121623
110553,121596
110554,121595
110526,121621
110509,121558
110519,121607
110517,121611
110592,121606
110577,121604
110658,121639
110620,121668
110661,121675
110761,121728
110736,121741
110806,121744
110827,121796
110891,121814
110911,121817
110947,121834
110984,121869
110969,121827
110979,121841
110996,121869
111012,121845
111010,121883
110978,121850
111028,121869
110974,121872
110973,121848
110980,121855
110970,121784
110953,121838
110900,121783
110889,121805
110838,121791
110864,121778
110856,121758
110788,121749
110799,121719
110770,121763
110760,121705
110763,121727
110746,121699
110772,121708
110749,121752
110761,121711
110812,121741
110801,121780
110845,121763
110886,121822
110896,121794
110911,121803
111010,121824
111049,121894
111038,121880
111130,121921
111115,121963
111180,121943
111230,121967
111279,121991
111316,122041
111315,122053
111406,122062
111430,122100
111449,122058
111509,122129
111509,122173
111570,122159
111607,122172
111598,122166
111613,122195
111672,122198
111697,122263
111696,122241
111757,122262
111728,122281
111778,122243
111805,122304
111782,122263
111811,122310
111812,122276
111873,122288
111846,122288
111880,122310
111853,122322
111899,122329
111877,122341
111918,122349
111904,122342
111947,122352
111937,122379
111945,122329
111955,122374
111928,122366
112004,122385
111953,122405
111963,122332
111997,122412
111951,122360
112025,122368
111979,122384
111998,122358
111999,122389
112007,122345
112005,122407
112010,122399
112047,122401
112040,122414
112054,122404
112087,122436
112080,122420
112124,122420
112104,122462
112101,122430
112162,122462
112104,122464
112166,122438
112158,122464
112127,122454
112180,122461
112190,122445
112206,122491
112196,122462
112225,122474
112228,122507
112243,122488
112280,122511
112266,122482
112350,122526
112315,122552
112371,122505
112373,122611
112408,122577
112398,122596
112425,122575
112462,122587
112465,122609
112476,122628
112467,122601
112502,122633
112519,122655
112532,122621
112550,122653
112545,122654
112602,122653
112578,122687
112588,122660
112644,122698
112610,122690
112635,122676
112666,122728
112639,122675
112672,122713
112694,122727
112686,122687
112718,122723
112715,122723
112737,122740
112732,122754
112730,122725
112772,122768
112733,122779
112743,122742
112804,122800
112753,122725
112774,122763
112746,122742
112787,122726
112797,122778
112777,122765
112802,122764
112793,122772
112821,122765
112806,122815
112838,122769
112862,122817
112829,122770
112902,122806
112842,122833
112890,122796
112891,122824
112877,122795
112915,122827
112852,122824
112903,122817
112924,122814
112900,122839
112920,122802
112924,122821
112945,122843
112941,122811
112952,122791
112982,122840
112946,122862
112962,122819
113005,122869
112992,122828
113005,122853
113014,122882
113032,122827
113043,122878
112996,122835
113043,122840
113020,122876
113024,122842
113060,122877
113026,122860
113040,122865
113085,122861
113056,122870
113052,122828
113045,122873
112997,122822
113009,122787
112907,122778
112782,122659
112607,122580
112297,122413
112071,122270
111885,122203
111718,122070
111602,122044
111466,121943
111350,121858
111202,121796
111022,121726
110835,121626
110712,121527
110554,121515
110422,121388
110349,121389
110198,121305
110118,121285
110046,121247
110020,121246
109945,121173
109943,121201
109884,121215
109867,121148
109873,121181
109860,121178
109872,121163
109860,121167
109863,121186
109864,121174
109909,121204
109873,121191
109947,121180
109923,121242
109957,121223
109983,121239
109951,121226
109992,121228
109975,121259
110006,121242
109966,121271
109969,121240
109961,121223
109972,121242
109932,121221
109953,121218
109922,121228
109942,121224
109920,121195
109944,121204
109933,121246
109955,121221
110026,121252
110025,121239
110064,121264
110074,121336
110146,121303
110182,121383
110217,121378
110267,121403
110307,121438
110325,121456
110398,121463
110380,121511
110388,121470
110476,121515
110425,121506
110461,121480
110433,121495
110444,121482
110395,121474
110390,121423
110401,121441
110339,121434
110338,121397
110306,121431
110291,121402
110271,121356
110291,121370
110223,121376
110206,121312
110228,121355
110176,121348
110193,121317
110182,121345
110158,121301
110171,121335
110147,121277
110172,121340
110138,121343
110187,121322
110165,121342
110187,121300
110224,121355
110214,121320
110283,121359
110258,121394
110321,121407
110358,121435
110392,121441
110451,121491
110464,121511
110518,121483
110542,121551
110559,121519
110628,121596
110609,121580
110672,121585
110674,121624
110714,121583
110704,121640
110729,121636
110795,121668
110782,121679
110792,121638
110827,121676
110817,121655
110867,121694
110891,121712
110910,121739
110914,121700
110935,121715
110973,121771
110995,121770
111048,121799
111038,121799
111110,121799
111122,121851
111129,121868
111185,121847
111196,121880
111246,121883
111224,121894
111281,121913
111256,121931
111278,121893
111321,121951
111300,121886
111300,121904
111273,121932
111305,121886
111295,121929
111306,121889
111336,121934
111303,121931
111336,121949
111339,121954
111366,121981
111383,121979
111435,121976
111475,122045
111461,122021
111570,122070
111578,122115
111645,122079
111691,122158
111682,122130
111784,122184
111805,122202
111838,122171
111861,122233
111890,122204
111940,122260
111991,122288
111998,122284
112031,122316
112081,122342
112080,122339
112126,122357
112184,122370
112153,122378
112186,122389
112247,122409
112217,122393
112254,122423
112291,122431
112257,122417
112299,122433
112332,122438
112317,122452
112347,122452
112333,122482
112374,122494
112405,122471
112398,122485
112445,122523
112451,122510
112458,122517
112509,122533
112506,122542
112503,122540
112541,122569
112509,122581
112553,122572
112538,122589
112591,122557
112560,122577
112600,122571
112610,122606
112591,122572
112617,122576
112620,122555
112661,122617
112606,122611
112645,122583
112661,122634
112661,122579
112682,122616
112669,122648
112734,122625
112711,122648
112715,122624
112752,122671
112744,122655
112732,122668
112757,122656
112773,122696
112788,122701
112757,122689
112800,122684
112814,122730
112813,122675
112828,122720
112809,122721
112861,122708
112841,122738
112835,122713
112898,122730
112868,122752
112872,122710
112904,122744
112889,122743
112897,122712
112903,122749
112902,122723
112942,122754
112912,122785
112947,122733
112960,122782
112929,122744
112958,122771
112943,122747
112989,122765
112954,122792
112997,122787
112989,122817
112967,122786
113015,122779
113018,122802
113028,122808
113049,122796
113039,122816
113054,122837
113016,122801
113078,122822
113030,122847
113063,122803
113100,122849
113052,122813
113094,122815
113061,122854
113071,122808
113098,122828
113038,122777
113078,122808
113002,122799
112988,122749
112938,122736
112772,122627
112546,122489
112249,122339
112058,122223
111843,122064
111639,121984
111539,121919
111378,121820
111229,121727
111077,121652
110885,121562
110731,121476
110575,121374
110408,121331
110279,121229
110139,121192
110038,121143
109922,121093
109872,121073
109838,121035
109752,121018
109749,121024
109704,120988
109691,121008
109649,120993
109636,120984
109666,120992
109668,120971
109654,120987
109660,120981
109652,121001
109634,120972
109656,120994
109658,120981
109684,121006
109679,121001
109670,121017
109671,121024
109694,120993
109685,121008
109689,121010
109696,120998
109691,121023
109719,121025
109679,121003
109709,121026
109694,121010
109685,121001
109656,121000
109679,120992
109694,121008
109645,120977
109695,121010
109680,121000
109692,121009
109721,121005
109750,121027
109768,121043
109793,121065
109787,121070
109851,121099
109892,121106
109932,121146
109923,121130
109983,121165
109990,121169
110005,121158
110033,121183
109988,121188
110054,121198
110013,121186
110049,121183
110028,121182
110064,121195
110033,121181
110049,121167
109979,121169
110016,121172
109973,121149
109988,121144
109899,121114
109955,121130
109891,121109
109912,121107
109877,121074
109903,121078
109871,121106
109876,121110
109922,121103
109855,121117
109908,121122
109886,121125
109930,121110
109948,121132
109953,121160
110008,121163
110010,121174
110067,121222
110099,121232
110142,121260
110181,121275
110251,121295
110268,121308
110305,121326
110360,121351
110368,121368
110439,121416
110468,121421
110530,121431
110546,121492
110600,121495
110640,121514
110698,121537
110704,121556
110745,121563
110779,121593
110841,121596
110847,121656
110884,121655
110904,121673
110969,121703
110969,121702
111018,121707
110996,121725
111101,121750
111082,121747
111153,121778
111137,121793
111201,121802
111213,121808
111266,121836
111261,121846
111312,121861
111317,121857
111376,121884
111394,121891
111370,121902
111441,121940
111486,121949
111478,121980
111513,121963
111538,121984
111514,121996
111540,121990
111574,122030
111566,122020
111626,122037
111597,122012
111683,122025
111634,122040
111683,122028
111658,122051
111693,122067
111704,122074
111701,122037
111722,122065
111714,122112
111755,122060
111746,122107
111741,122119
111724,122087
111757,122073
111755,122083
111773,122082
111790,122125
111786,122116
111809,122086
111808,122142
111817,122137
111852,122148
111868,122128
111910,122175
111930,122167
111933,122201
111964,122191
112004,122208
112007,122235
112023,122226
112114,122251
112060,122311
112107,122242
112168,122307
112145,122284
112193,122295
112188,122311
112206,122295
112248,122342
112295,122358
112252,122360
112303,122331
112327,122376
112294,122359
112378,122373
112336,122430
112386,122388
112432,122431
112408,122407
112441,122444
112430,122454
112476,122430
112472,122448
112507,122493
112512,122472
112515,122507
112522,122495
112577,122503
112528,122492
112547,122497
112604,122513
112595,122548
112574,122500
112633,122531
112617,122565
112607,122487
112650,122553
112615,122538
112657,122549
112672,122575
112680,122540
112683,122583
112663,122540
112726,122559
112759,122588
112719,122569
112720,122591
112763,122589
112748,122598
112770,122577
112785,122591
112765,122627
112768,122570
112808,122585
112805,122616
112827,122598
112841,122616
112821,122591
112874,122653
112817,122639
112837,122624
112867,122624
112891,122653
112899,122636
112905,122660
112892,122652
112930,122652
112933,122704
112905,122630
112979,122675
112921,122689
112942,122655
112985,122702
112992,122682
112984,122692
112997,122704
112954,122675
112997,122675
112998,122700
112990,122676
113010,122694
113021,122677
113051,122733
113029,122671
113079,122713
113057,122723
113084,122699
113089,122743
113073,122724
113122,122756
113073,122709
113115,122723
113081,122756
113087,122716
113065,122728
113039,122674
112957,122662
112903,122572
112704,122478
112408,122315
112075,122121
111874,121998
111663,121930
111510,121798
111395,121731
111157,121644
110990,121515
110826,121469
110667,121328
110492,121271
110293,121165
110180,121110
110056,121074
109973,121008
109878,120974
109827,120982
109809,120924
109809,120974
109779,120948
109794,120954
109788,120986
109815,120958
109826,121015
109834,121006
109849,121023
109869,121005
109918,121000
109930,121066
109935,121042
109983,121089
109989,121077
110005,121099
110013,121086
110048,121081
110068,121122
110006,121091
110055,121085
110026,121151
110033,121074
110072,121128
110019,121052
110049,121104
109997,121087
110054,121087
110028,121104
110039,121067
110070,121106
110071,121108
110110,121143
110141,121163
110165,121192
110218,121232
110297,121246
110366,121308
110402,121280
110479,121373
110507,121390
110634,121392
110651,121467
110665,121430
110743,121500
110738,121510
110773,121485
110806,121516
110814,121522
110792,121496
110808,121519
110843,121530
110804,121520
110848,121484
110825,121525
110799,121474
110809,121510
110772,121497
110749,121484
110749,121461
110777,121476
110691,121417
110703,121403
110683,121433
110642,121374
110634,121372
110599,121390
110595,121364
110588,121386
110606,121358
110630,121406
110613,121399
110647,121391
110683,121451
110708,121415
110749,121460
110762,121484
110822,121493
110848,121549
110867,121530
110935,121583
110964,121565
110992,121608
111055,121631
111079,121665
111097,121625
111169,121694
111158,121720
111229,121706
111254,121760
111267,121732
111334,121791
111338,121798
111404,121796
111422,121866
111431,121817
111524,121888
111495,121938
111573,121907
111591,121936
111608,121970
111639,121966
111678,121958
111677,121987
111693,121993
111688,121965
111689,121995
111734,122011
111749,121972
111755,122009
111764,122057
111814,122026
111815,122071
111813,122042
111856,122063
111867,122092
111887,122078
111911,122111
111888,122090
111949,122097
111974,122150
111988,122140
111989,122176
112011,122135
112035,122190
112018,122138
112092,122209
112038,122220
112073,122199
112101,122247
112103,122190
112109,122216
112135,122230
112141,122211
112163,122238
112165,122278
112191,122280
112185,122265
112219,122255
112239,122301
112243,122258
112300,122297
112274,122308
112291,122311
112295,122320
112352,122305
112359,122363
112345,122344
112420,122354
112390,122393
112427,122341
112455,122395
112486,122402
112448,122385
112515,122436
112534,122430
112526,122425
112556,122438
112496,122440
112535,122416
112594,122484
112552,122442
112591,122431
112600,122488
112611,122463
112634,122503
112626,122505
112658,122463
112671,122504
112665,122503
112659,122489
112713,122499
112698,122540
112699,122493
112753,122547
112709,122535
112745,122523
112750,122563
112781,122531
112767,122561
112757,122545
112781,122565
112778,122560
112779,122590
112767,122532
112805,122564
112828,122557
112808,122587
112813,122586
112854,122595
112856,122561
112870,122611
112857,122590
112906,122613
112891,122637
112880,122578
112929,122609
112891,122626
112916,122601
112920,122650
112919,122593
112932,122628
112944,122609
112968,122634
112914,122628
112975,122659
112984,122625
112953,122656
112965,122630
112978,122676
112940,122621
112998,122651
112980,122674
112986,122625
113038,122689
112992,122650
113007,122645
113036,122698
113002,122665
113029,122691
113051,122689
113005,122670
113074,122699
113073,122712
113083,122692
113058,122710
113083,122678
113115,122751
113102,122703
113132,122741
113129,122716
113113,122766
113125,122750
113162,122736
113173,122785
113149,122765
113192,122767
113177,122764
113210,122762
113198,122795
113191,122777
113184,122748
113165,122769
113145,122761
113157,122716
113060,122716
112969,122602
112827,122558
112511,122399
112307,122232
112061,122122
111828,121967
111691,121915
111492,121810
111352,121706
111193,121603
111043,121547
110877,121449
110731,121346
110625,121345
110433,121260
110336,121178
110270,121179
110137,121122
110129,121083
110073,121097
110030,121036
110024,121077
110000,121061
110037,121044
110021,121100
110032,121067
110047,121082
110092,121097
110097,121103
110158,121138
110178,121186
110230,121162
110273,121217
110293,121194
110343,121238
110344,121228
110414,121273
110406,121285
110432,121321
110416,121297
110473,121297
110463,121324
110494,121293
110511,121316
110477,121301
110454,121321
110425,121293
110465,121276
110433,121301
110391,121248
110446,121284
110389,121241
110423,121227
110391,121291
110420,121260
110458,121325
110440,121295
110528,121318
110518,121355
110575,121351
110591,121387
110659,121398
110665,121431
110718,121449
110736,121435
110730,121467
110791,121480
110769,121470
110786,121465
110783,121480
110787,121459
110786,121465
110762,121448
110734,121440
110747,121428
110691,121394
110701,121403
110637,121396
110626,121353
110602,121349
110584,121326
110518,121300
110546,121305
110521,121308
110465,121284
110487,121312
110472,121295
110467,121274
110472,121292
110462,121284
110478,121282
110515,121311
110516,121291
110575,121333
110610,121368
110629,121379
110677,121380
110728,121462
110759,121436
110849,121469
110857,121498
110936,121515
110939,121570
110987,121556
111088,121604
111069,121599
111133,121640
111143,121687
111227,121678
111248,121709
111275,121687
111339,121755
111347,121768
111372,121761
111423,121809
111453,121784
111482,121827
111490,121866
111559,121859
111595,121914
111608,121889
111685,121936
111667,121975
111700,121952
111729,122000
111766,121971
111793,121996
111760,121960
111836,122033
111843,122006
111828,122001
111861,122030
111869,122049
111848,122031
111874,122028
111867,122039
111902,122038
111895,122079
111899,122041
111915,122060
111929,122076
111914,122056
111975,122100
111968,122110
111984,122080
112000,122136
112038,122127
112023,122168
112041,122140
112126,122156
112103,122191
112134,122147
112167,122208
112143,122185
112175,122198
112184,122220
112198,122200
112214,122234
112212,122235
112267,122258
112283,122257
112286,122268
112274,122274
112300,122270
112316,122248
112340,122305
112368,122285
112380,122334
112379,122346
112430,122336
112447,122371
112460,122333
112485,122388
112478,122386
112523,122374
112538,122458
112513,122394
112591,122463
112543,122434
112599,122437
112616,122443
112626,122483
112630,122476
112640,122444
112632,122505
112639,122489
112706,122517
112666,122471
112687,122506
112701,122496
112714,122509
112718,122532
112713,122486
112730,122515
112708,122505
112778,122517
112760,122536
112750,122541
112780,122509
112755,122559
112784,122543
112812,122527
112800,122576
112792,122527
112865,122570
112820,122575
112846,122546
112856,122585
112833,122557
112864,122599
112872,122587
112911,122579
112899,122593
112921,122621
112918,122617
112893,122618
112900,122623
112908,122628
112900,122593
112962,122647
112964,122639
112940,122634
112956,122650
112949,122602
112982,122648
112963,122629
113003,122599
112975,122659
112962,122609
113019,122670
113014,122678
113027,122628
113047,122644
113041,122652
113020,122654
113068,122696
113023,122673
113057,122648
113061,122669
113034,122641
113080,122662
113057,122692
113071,122669
113092,122689
113087,122672
113107,122671
113108,122703
113090,122680
113164,122701
113134,122680
113152,122689
113147,122719
113140,122717
113157,122699
113177,122710
113133,122685
113179,122722
113128,122722
113176,122699
113179,122752
113167,122718
113205,122710
113161,122719
113184,122698
113146,122742
113148,122682
113149,122703
113136,122661
113006,122647
112904,122520
112727,122457
112442,122275
112244,122155
112005,122064
111840,121925
111712,121871
111535,121773
111401,121683
111228,121613
111064,121479
110936,121443
110742,121339
110644,121287
110514,121233
110427,121186
110314,121144
110272,121099
110167,121084
110110,121054
110103,121054
110070,121071
110106,121023
110071,121071
110071,121026
110143,121089
110121,121133
110187,121088
110218,121137
110214,121130
110284,121169
110304,121205
110346,121215
110399,121239
110436,121273
110433,121307
110464,121261
110517,121319
110500,121317
110568,121326
110561,121346
110600,121329
110560,121381
110573,121343
110617,121361
110606,121372
110598,121326
110605,121370
110598,121354
110622,121363
110624,121328
110594,121382
110650,121360
110679,121404
110679,121359
110738,121452
110745,121437
110829,121449
110837,121521
110914,121498
110974,121571
110979,121588
111064,121602
111060,121625
111133,121636
111135,121684
111152,121661
111179,121679
111165,121681
111164,121666
111212,121665
111158,121701
111171,121641
111172,121674
111106,121593
111131,121605
111073,121620
111072,121580
111052,121592
111023,121542
111043,121534
111009,121569
110966,121507
111003,121533
111000,121497
111007,121543
110982,121541
110971,121544
111007,121531
110994,121569
111013,121534
111093,121587
111092,121593
111088,121613
111137,121611
111174,121660
111180,121661
111258,121677
111268,121734
111333,121713
111408,121782
111439,121809
111484,121832
111530,121824
111579,121883
111589,121898
111661,121883
111667,121955
111699,121913
111777,121984
111762,121974
111803,121974
111834,122019
111854,121988
111898,122057
111883,122024
111951,122061
111954,122063
111958,122083
111978,122079
111975,122095
111998,122079
112030,122086
112026,122131
112053,122103
112084,122118
112044,122117
112104,122113
112099,122187
112107,122135
112141,122203
112126,122161
112151,122164
112167,122207
112185,122145
112182,122181
112187,122177
112201,122194
112223,122223
112214,122236
112210,122188
112215,122231
112233,122201
112250,122204
112269,122228
112275,122249
112266,122204
112329,122226
112315,122275
112331,122214
112373,122273
112319,122257
112374,122252
112392,122311
112404,122292
112406,122301
112451,122276
112467,122334
112479,122293
112472,122330
112495,122340
112519,122308
112507,122358
112513,122319
112537,122358
112515,122372
112529,122359
112534,122359
112549,122395
112575,122353
112612,122383
112605,122379
112612,122390
112618,122427
112646,122421
112663,122404
112654,122441
112651,122438
112734,122472
112691,122471
112707,122401
112707,122476
112706,122450
112734,122453
112725,122470
112760,122443
112745,122473
112742,122462
112767,122512
112752,122469
112786,122492
112795,122473
112772,122496
112770,122476
112824,122502
112789,122519
112809,122491
112867,122528
112829,122488
112839,122487
112846,122535
112834,122492
112880,122526
112836,122504
112863,122556
112857,122528
112881,122552
112877,122486
112904,122546
112878,122521
112926,122544
112902,122536
112923,122528
112925,122585
112917,122521
112975,122556
112975,122556
112974,122572
112977,122564
112974,122570
112944,122554
112964,122574
112957,122555
112991,122571
112970,122552
113003,122567
113024,122596
113005,122598
113031,122579
113042,122602
113030,122560
113057,122581
113033,122628
113054,122603
113093,122643
113066,122596
113091,122623
113076,122619
113111,122627
113095,122616
113119,122614
113083,122623
113073,122613
113131,122650
113108,122660
113148,122626
113135,122655
113092,122612
113132,122628
113106,122640
113077,122566
113085,122593
112995,122576
112933,122464
112806,122435
112564,122266
112323,122141
112094,122054
111929,121921
111788,121846
111631,121792
111544,121683
111481,121695
111311,121600
111221,121534
111084,121481
111009,121440
110880,121380
110845,121352
110770,121339
110685,121264
110674,121252
110606,121258
110603,121251
110589,121213
110585,121250
110542,121242
110613,121240
110619,121301
110664,121272
110712,121346
110698,121344
110808,121349
110798,121423
110828,121385
110887,121447
110852,121439
110930,121448
110948,121490
110975,121471
111008,121505
111017,121514
111085,121531
111106,121531
111114,121579
111118,121595
111186,121580
111213,121644
111221,121591
111290,121666
111295,121672
111354,121647
111350,121739
111374,121710
111471,121751
111462,121757
111532,121769
111556,121802
111586,121860
111617,121830
111617,121855
111689,121859
111729,121919
111730,121877
111793,121936
111754,121922
111801,121943
111812,121920
111856,121974
111827,121930
111845,121962
111831,121977
111865,121932
111851,121958
111834,121933
111795,121925
111839,121915
111763,121896
111773,121901
111738,121859
111711,121896
111676,121881
111706,121860
111678,121868
111634,121809
111659,121826
111598,121842
111630,121830
111602,121832
111664,121807
111654,121861
111680,121846
111702,121865
111761,121894
111783,121905
111810,121944
111839,121955
111916,121984
111906,121987
111995,122038
112003,122060
112047,122067
112066,122104
112119,122119
112168,122110
112161,122143
112181,122141
112224,122178
112240,122166
112257,122170
112292,122180
112313,122197
112355,122220
112349,122230
112396,122273
112410,122270
112412,122296
112464,122301
112473,122293
112479,122306
112537,122329
112493,122330
112544,122320
112555,122357
112549,122347
112581,122365
112577,122378
112623,122372
112623,122373
112618,122382
112629,122418
112638,122371
112660,122442
112637,122404
112707,122418
112683,122434
112714,122411
112722,122459
112706,122400
112747,122448
112739,122477
112742,122452
112766,122461
112744,122462
112761,122435
112798,122449
112775,122462
112794,122474
112812,122479
112794,122470
112823,122456
112824,122482
112830,122456
112880,122488
112826,122464
112842,122475
112841,122505
112854,122475
112865,122500
112845,122483
112895,122493
112884,122510
112875,122504
112937,122519
112902,122525
112906,122484
112943,122532
112954,122518
112934,122526
112919,122519
112946,122521
112970,122557
112966,122513
112991,122528
112970,122567
112974,122525
113013,122567
113005,122561
113001,122537
113006,122567
113032,122571
113019,122535
113081,122574
113007,122556
113077,122571
113042,122611
113093,122577
113092,122607
113061,122571
113127,122622
113069,122628
113102,122611
113102,122621
113134,122625
113136,122625
113137,122640
113170,122636
113137,122638
113150,122639
113195,122644
113166,122691
113200,122646
113216,122701
113190,122664
113201,122670
113240,122701
113224,122659
113239,122698
113189,122676
113264,122686
113211,122715
113238,122678
113247,122688
113207,122673
113223,122660
113255,122653
113218,122672
113261,122665
113203,122663
113229,122651
113277,122692
113227,122652
113245,122659
113246,122696
113247,122652
113282,122673
113239,122668
113271,122656
113270,122703
113273,122676
113317,122691
113308,122705
113301,122678
113289,122693
113307,122672
113327,122726
113316,122679
113332,122705
113306,122697
113328,122688
113340,122747
113344,122704
113358,122669
113337,122743
113323,122709
113358,122693
113349,122708
113339,122722
113357,122726
113326,122689
113361,122720
113355,122696
113350,122738
113337,122670
113330,122682
113273,122669
113253,122613
113130,122588
112923,122435
112732,122324
112411,122203
112182,122025
112042,121961
111878,121841
111732,121820
111656,121755
111611,121710
111480,121661
111385,121574
111290,121529
111195,121506
111097,121420
111042,121413
110927,121351
110888,121321
110836,121349
110769,121297
110776,121299
110707,121262
110720,121276
110711,121309
110723,121289
110703,121280
110709,121321
110737,121309
110773,121360
110774,121342
110832,121366
110814,121375
110862,121385
110848,121400
110897,121392
110886,121381
110913,121433
110873,121420
110929,121432
110917,121456
110910,121410
110931,121447
110941,121433
110953,121443
110926,121444
110962,121440
110930,121445
110928,121396
110941,121443
110917,121430
110961,121434
110948,121459
110968,121419
111011,121486
111010,121471
111080,121532
111080,121509
111191,121550
111210,121593
111300,121606
111318,121654
111368,121668
111460,121717
111485,121738
111495,121739
111577,121783
111590,121816
111635,121766
111631,121831
111629,121782
111663,121815
111646,121849
111627,121779
111653,121825
111584,121799
111583,121793
111606,121781
111571,121780
111574,121776
111535,121718
111544,121738
111509,121736
111507,121691
111467,121734
111475,121725
111447,121716
111443,121677
111510,121719
111469,121703
111485,121705
111496,121749
111498,121717
111536,121737
111541,121735
111589,121735
111575,121775
111615,121780
111647,121776
111683,121845
111656,121829
111700,121841
111710,121869
111762,121816
111764,121873
111752,121855
111812,121909
111805,121910
111837,121901
111846,121940
111857,121921
111861,121908
111889,121933
111899,121946
111893,121917
111916,121946
111885,121953
111914,121924
111942,121956
111907,121958
111956,121942
111910,122001
111910,121922
111974,121990
111947,121950
111978,121963
111941,121988
111959,121956
111966,121988
111987,121975
111972,122003
111963,121986
112036,121995
111986,122037
112008,121992
112040,122032
112058,122009
112041,122044
112085,122037
112095,122061
112069,122028
112134,122044
112116,122098
112111,122041
112159,122078
112144,122095
112172,122084
112151,122094
112198,122114
112176,122086
112171,122062
112196,122095
112151,122040
112195,122091
112152,122088
112215,122074
112182,122117
112222,122062
112237,122121
112189,122098
112234,122101
112229,122062
112260,122086
112247,122116
112276,122131
112284,122141
112275,122140
112275,122154
112299,122126
112277,122169
112293,122110
112330,122150
112275,122149
112308,122149
112306,122147
112311,122150
112326,122183
112327,122159
112392,122188
112350,122183
112390,122207
112391,122200
112379,122203
112435,122213
112464,122271
112455,122209
112454,122220
112518,122246
112495,122285
112481,122249
112549,122265
112523,122303
112533,122245
112586,122308
112546,122291
112578,122276
112593,122310
112606,122288
112626,122302
112608,122325
112619,122342
112597,122310
112665,122330
112642,122352
112664,122312
112693,122375
112674,122347
112735,122373
112728,122384
112759,122369
112736,122405
112762,122398
112759,122388
112813,122414
112782,122426
112786,122438
112798,122430
112801,122402
112822,122450
112764,122445
112815,122408
112817,122457
112816,122383
112820,122419
112783,122424
112850,122420
112819,122453
112821,122388
112878,122451
112839,122413
112870,122425
112891,122456
112892,122438
112938,122462
112899,122455
112939,122466
112906,122487
112921,122497
112958,122478
112953,122501
112959,122460
112977,122486
112981,122507
112970,122502
113009,122496
112988,122518
113006,122499
113027,122525
112996,122499
113034,122513
113023,122539
113070,122548
113064,122542
113079,122548
113060,122582
113089,122551
113091,122588
113062,122527
113082,122569
113023,122552
113001,122524
112876,122435
112747,122371
112517,122244
112332,122093
112115,121999
111906,121878
111711,121739
111583,121707
111418,121627
111264,121492
111110,121443
110885,121310
110819,121261
110658,121218
110542,121129
110469,121093
110331,121058
110257,121010
110243,120990
110170,120954
110140,120973
110086,120926
113070,122548
110139,120935
110153,120955
110169,120992
110207,120982
110239,121000
110282,121087
110298,121050
110346,121088
110378,121107
110421,121101
110484,121178
110475,121159
110555,121187
110549,121245
110616,121201
110647,121274
110663,121252
110688,121291
110692,121254
110715,121290
110749,121264
110749,121312
110759,121285
110786,121306
110752,121323
110784,121304
110785,121304
110769,121302
110758,121327
110757,121280
110776,121341
110790,121332
110847,121321
110835,121350
110894,121367
110910,121402
110970,121466
110999,121435
111059,121483
111083,121471
111141,121500
111174,121553
111196,121527
111225,121583
111211,121573
111264,121560
111250,121579
111244,121531
111228,121565
111197,121528
111215,121539
111199,121528
111201,121521
111156,121517
111101,121486
111126,121500
111057,121469
111090,121443
111051,121451
111000,121418
111035,121466
110999,121447
111027,121413
111006,121432
110967,121382
111002,121456
111000,121417
111023,121420
111009,121434
111006,121409
110978,121439
111041,121433
111028,121462
111068,121442
111103,121508
111120,121497
111163,121521
111212,121524
111206,121585
111272,121579
111322,121635
111349,121628
111421,121686
111429,121683
111524,121682
111546,121719
111567,121732
111629,121774
111649,121800
111687,121825
111719,121804
111742,121835
111756,121846
111807,121852
111799,121879
111850,121882
111850,121917
111883,121863
111921,121943
111898,121876
111960,121940
111969,121933
111982,121945
111995,121985
111947,121969
112061,122018
112048,121999
112058,122018
112068,122006
112124,122037
112131,122026
112110,122047
112154,122034
112149,122049
112193,122044
112145,122060
112191,122091
112197,122057
112197,122069
112226,122071
112243,122079
112265,122078
112276,122080
112249,122105
112295,122095
112297,122099
112325,122117
112280,122097
112368,122144
112358,122141
112350,122128
112366,122156
112344,122121
112420,122155
112368,122163
112392,122135
112453,122172
112444,122163
112491,122212
112450,122181
112482,122206
112517,122211
112516,122196
112546,122208
112517,122255
112556,122222
112574,122266
112561,122260
112594,122263
112566,122275
112615,122251
112598,122285
112631,122272
112642,122301
112647,122285
112666,122292
112681,122299
112655,122328
112653,122276
112729,122334
112680,122318
112708,122283
112741,122367
112720,122319
112755,122346
112757,122369
112784,122325
112792,122376
112784,122345
112822,122417
112815,122411
112818,122390
112822,122363
112866,122405
112859,122382
112875,122429
112861,122393
112868,122396
112868,122431
112861,122383
112908,122416
112871,122452
112891,122399
112931,122441
112875,122394
112921,122414
112921,122444
112915,122425
112920,122434
112934,122445
112933,122443
112951,122460
112924,122433
112959,122446
112949,122438
112979,122441
112979,122484
112963,122449
113021,122467
113000,122492
113014,122477
113005,122482
113021,122487
113011,122483
113016,122483
113053,122490
113059,122503
113054,122493
113059,122487
113112,122529
113077,122534
113086,122531
113103,122531
113055,122508
113104,122544
113077,122555
113101,122532
113110,122560
113111,122497
113146,122544
113104,122544
113155,122514
113134,122547
113134,122522
113136,122530
113147,122526
113141,122541
113102,122532
113129,122495
113129,122508
113031,122485
112963,122398
112836,122366
112634,122191
112407,122098
112163,121994
111998,121845
111831,121789
111671,121662
111611,121644
111492,121585
111328,121460
111202,121426
111087,121331
110979,121284
110867,121259
110757,121179
110678,121165
110555,121076
110525,121089
110436,121082
110437,121046
110384,121074
110427,121050
110373,121073
110367,121015
110435,121087
110429,121080
110441,121106
110465,121130
110549,121125
110603,121175
110588,121182
110691,121214
110674,121241
110710,121221
110787,121269
110783,121301
110841,121296
110843,121366
110857,121296
110867,121358
110874,121325
110942,121363
110909,121350
110924,121338
110921,121335
110938,121357
110915,121395
110917,121354
110886,121345
110937,121341
110928,121372
110915,121337
110958,121380
110947,121374
110992,121365
111020,121429
111021,121392
111061,121430
111068,121442
111129,121472
111118,121472
111162,121516
111164,121502
111193,121506
111160,121519
111142,121469
111163,121500
111084,121468
111083,121429
111071,121421
110989,121431
110957,121384
110980,121376
110910,121388
110892,121332
110887,121328
110831,121286
110816,121294
110748,121301
110759,121301
110744,121244
110748,121270
110685,121235
110695,121244
110659,121245
110719,121217
110695,121271
110671,121224
110731,121256
110688,121252
110726,121227
110744,121299
110748,121264
110791,121318
110804,121298
110830,121304
110823,121329
110892,121358
110906,121394
110933,121388
110926,121420
110971,121410
111037,121438
111050,121466
111064,121467
111138,121533
111168,121502
111215,121545
111238,121582
111318,121576
111359,121649
111394,121625
111462,121662
111444,121649
111505,121721
111543,121728
111556,121706
111616,121744
111592,121748
111693,121757
111642,121789
111652,121804
111667,121781
111708,121806
111758,121842
111723,121834
111795,121849
111806,121872
111835,121856
111850,121872
111870,121879
111870,121888
111914,121893
111893,121956
111916,121900
111982,121980
111938,121949
112002,121943
112000,121974
112013,121946
112043,121985
112014,121975
112079,121999
112066,122041
112074,121992
112100,122035
112124,122035
112112,122021
112113,122031
112101,122051
112137,122023
112169,122071
112143,122085
112171,122060
112203,122075
112192,122070
112224,122082
112222,122112
112242,122070
112240,122147
112230,122082
112281,122119
112271,122144
112282,122126
112296,122144
112279,122163
112299,122134
112331,122147
112303,122164
112322,122144
112303,122173
112372,122165
112387,122152
112422,122196
112385,122209
112436,122194
112465,122233
112465,122183
112472,122243
112494,122246
112529,122240
112536,122271
112560,122231
112576,122245
112565,122289
112605,122257
112606,122296
112586,122263
112645,122291
112624,122316
112646,122268
112696,122326
112671,122335
112686,122329
112699,122346
112743,122322
112750,122349
112740,122351
112770,122383
112739,122375
112765,122397
112775,122371
112807,122406
112798,122406
112843,122374
112854,122422
112827,122396
112856,122406
112851,122422
112875,122388
112880,122439
112865,122428
112921,122427
112881,122436
112892,122412
112908,122409
112943,122455
112901,122407
112936,122448
112907,122430
112905,122448
112929,122442
112910,122438
112914,122408
112975,122461
112924,122421
112952,122411
112983,122466
112951,122422
112984,122445
112966,122459
112991,122431
112987,122463
113012,122467
113028,122449
113024,122498
113009,122461
113053,122484
113017,122484
113068,122461
113041,122489
113024,122450
113071,122502
113029,122472
113068,122498
113057,122494
113058,122480
113087,122497
113067,122508
113095,122483
113103,122489
113078,122506
113100,122529
113090,122479
113145,122532
113103,122513
113143,122480
113126,122525
113109,122476
113129,122514
113124,122500
113169,122504
113124,122539
113125,122496
113191,122540
113139,122511
113159,122508
113132,122518
113103,122478
113050,122453
112909,122395
112779,122274
112535,122174
112286,122000
112064,121928
111840,121766
111720,121657
111494,121606
111283,121419
111133,121383
110895,121266
110730,121134
110554,121079
110391,120996
110241,120902
110143,120858
110009,120817
109923,120764
109830,120760
109780,120688
109789,120708
109723,120712
109731,120697
109709,120726
109745,120706
109737,120714
109749,120718
109791,120721
109779,120785
109798,120745
109840,120787
109839,120756
109880,120782
109915,120811
109905,120795
109953,120807
109934,120856
109959,120798
110007,120875
109962,120825
109989,120849
109992,120879
109997,120843
109996,120865
109948,120821
109959,120824
109913,120836
109888,120810
109896,120788
109865,120779
109878,120779
109835,120778
109843,120793
109852,120776
109864,120813
109853,120814
109900,120788
109919,120835
109900,120825
110023,120867
110025,120901
110062,120886
110135,120966
110132,120936
110197,120981
110207,120989
110247,120976
110283,120997
110291,121027
110274,121042
110328,121018
110328,121060
110330,121020
110392,121037
110386,121045
110358,121039
110357,121004
110355,121029
110295,121008
110324,120992
110246,121000
110247,120936
110195,120940
110187,120916
110132,120898
110117,120894
110069,120881
110079,120858
110072,120908
110036,120874
110088,120859
110049,120899
110042,120849
110119,120919
110089,120891
110116,120884
110143,120942
110157,120926
110191,120975
110245,120977
110283,120973
110304,121040
110362,121032
110323,121066
110409,121074
110411,121109
110467,121085
110538,121132
110497,121124
110575,121135
110572,121198
110608,121133
110655,121202
110645,121197
110696,121202
110684,121257
110705,121216
110740,121268
110759,121226
110763,121253
110760,121282
110756,121271
110818,121251
110767,121303
110791,121260
110824,121327
110836,121268
110815,121313
110845,121328
110832,121318
110847,121281
110863,121320
110838,121301
110863,121297
110869,121313
110868,121328
110885,121338
110861,121304
110892,121320
110903,121344
110906,121299
110912,121333
110909,121330
110958,121367
110950,121384
111002,121343
111012,121412
111012,121381
111049,121432
111063,121412
111155,121426
111116,121461
111135,121461
111151,121460
111213,121486
111231,121485
111213,121515
111224,121455
111292,121532
111261,121549
111279,121512
111321,121545
111331,121523
111371,121552
111356,121599
111410,121570
111419,121602
111439,121590
111491,121622
111461,121633
111539,121653
111528,121678
111570,121667
111618,121697
111644,121692
111648,121699
111672,121725
111709,121725
111737,121724
111716,121737
111769,121786
111775,121766
111779,121777
111800,121783
111794,121806
111836,121796
111849,121796
111849,121831
111892,121829
111859,121822
111890,121819
111875,121830
111905,121824
111925,121841
111902,121822
111905,121824
111914,121856
111916,121797
111944,121862
111905,121828
111967,121840
111922,121866
111921,121848
111971,121865
111957,121837
111961,121877
111959,121861
112004,121891
111990,121892
112015,121854
112021,121915
112011,121897
112052,121893
112021,121935
112025,121881
112083,121928
112020,121918
112074,121929
112045,121915
112073,121891
112050,121899
112061,121908
112027,121909
112016,121916
112032,121868
112023,121887
112038,121880
112047,121875
112074,121911
112044,121929
112069,121876
112122,121952
112097,121916
112149,121921
112166,121967
112180,121939
112216,121994
112233,122004
112262,121974
112264,122036
112303,122011
112335,122081
112330,122038
112368,122068
112363,122098
112445,122084
112445,122134
112448,122077
112504,122138
112449,122150
112507,122158
112511,122150
112534,122134
112567,122178
112552,122163
112593,122183
112568,122190
112598,122210
112549,122187
112592,122175
112567,122202
112525,122146
112499,122152
112400,122075
112318,122020
112160,121972
111993,121832
111840,121785
111635,121633
111475,121559
111251,121451
111078,121312
110822,121223
110621,121084
110454,121006
110227,120904
110086,120833
109892,120724
109767,120645
109607,120620
109542,120535
109483,120522
109363,120474
109352,120448
109264,120482
109230,120406
109260,120460
109200,120414
109222,120430
109220,120430
109205,120420
109231,120408
109270,120456
109244,120471
109300,120463
109302,120498
109336,120461
109366,120514
109345,120492
109441,120552
109464,120542
109479,120560
109424,120558
109519,120532
109511,120605
109507,120582
109532,120583
109552,120582
109509,120589
109503,120614
109514,120562
109546,120601
109516,120584
109546,120564
109553,120628
109543,120598
109593,120621
109599,120640
109632,120599
109685,120691
109700,120655
109792,120718
109791,120734
109848,120763
109889,120793
109895,120819
109967,120794
110004,120829
109946,120842
110012,120843
110000,120866
109997,120790
109982,120836
109935,120801
109962,120790
109891,120801
109865,120717
109874,120762
109795,120690
109796,120685
109751,120711
109752,120659
109731,120665
109669,120641
109700,120644
109666,120648
109661,120586
109673,120639
109626,120602
109612,120634
109664,120605
109647,120617
109659,120591
109694,120656
109671,120653
109713,120627
109726,120696
109755,120657
109795,120693
109808,120663
109834,120713
109893,120730
109931,120791
109944,120759
110005,120814
110059,120850
110105,120829
110124,120881
110137,120862
110218,120940
110220,120948
110283,120961
110309,121003
110341,120958
110386,121017
110425,121041
110443,121032
110475,121073
110493,121059
110554,121087
110567,121091
110593,121130
110585,121142
110646,121119
110657,121183
110651,121141
110724,121198
110684,121187
110746,121183
110786,121226
110797,121185
110839,121255
110854,121267
110885,121247
110912,121276
110956,121330
110940,121294
111011,121324
111005,121344
111049,121349
111076,121383
111096,121366
111152,121399
111126,121371
111166,121392
111209,121435
111210,121421
111229,121434
111244,121478
111297,121481
111314,121485
111321,121487
111369,121514
111337,121522
111385,121526
111388,121495
111411,121548
111402,121523
111438,121539
111439,121563
111456,121529
111433,121564
111453,121515
111467,121595
111480,121579
111455,121582
111505,121581
111497,121594
111509,121583
111540,121622
111545,121570
111605,121628
111569,121641
111620,121611
111661,121657
111636,121625
111672,121675
111683,121713
111718,121647
111741,121695
111727,121689
111795,121714
111752,121745
111789,121727
111806,121738
111796,121753
111807,121780
111844,121744
111820,121753
111828,121778
111888,121765
111846,121778
111902,121745
111902,121793
111874,121764
111950,121792
111934,121829
111953,121791
112002,121849
111959,121837
112032,121864
112036,121851
112029,121878
112044,121889
112058,121845
112085,121888
112055,121869
112082,121867
112096,121908
112102,121871
112124,121906
112082,121893
112141,121882
112116,121900
112147,121925
112125,121908
112167,121903
112202,121941
112197,121906
112212,121912
112224,121976
112224,121956
112279,121979
112265,121982
112310,121968
112328,122020
112316,121984
112381,122025
112366,122011
112408,122011
112404,122087
112411,122036
112480,122079
112441,122085
112489,122066
112502,122071
112523,122093
112495,122085
112558,122116
112556,122106
112534,122099
112601,122133
112585,122160
112608,122122
112645,122169
112623,122133
112643,122147
112635,122175
112679,122153
112697,122190
112681,122181
112724,122167
112713,122192
112723,122226
112736,122195
112723,122212
112759,122210
112772,122200
112795,122249
112766,122200
112808,122228
112790,122232
112830,122204
112786,122226
112753,122163
112724,122178
112648,122122
112491,122000
112345,121927
112109,121819
111873,121683
111704,121612
111543,121450
111405,121400
111180,121329
110975,121183
110841,121095
110634,121002
110408,120866
110284,120831
110066,120727
109947,120644
109809,120623
109714,120522
109630,120528
109557,120479
109550,120468
109508,120474
109462,120468
109506,120465
109442,120445
109475,120428
109495,120471
109508,120517
109501,120463
109549,120519
109553,120556
109583,120517
109609,120555
109598,120534
109661,120556
109655,120591
109675,120553
109736,120604
109713,120591
109748,120632
109739,120598
109786,120647
109781,120614
109819,120637
109812,120667
109830,120616
109857,120660
109809,120646
109851,120653
109858,120657
109839,120617
109869,120659
109830,120699
109861,120639
109892,120674
109893,120668
109943,120709
109965,120729
110025,120741
110074,120773
110107,120830
110184,120821
110241,120873
110244,120870
110334,120879
110334,120960
110410,120923
110461,120946
110420,120960
110469,120964
110473,120992
110491,120969
110503,120980
110498,120960
110514,120996
110498,121021
110496,120998
110513,120982
110507,121014
110470,120959
110512,120946
110470,120987
110440,120920
110464,120965
110370,120929
110373,120908
110366,120929
110332,120884
110322,120903
110287,120860
110279,120870
110275,120851
110306,120874
110279,120842
110331,120892
110293,120869
110342,120909
110385,120944
110427,120948
110438,120957
110490,121001
110556,121004
110596,121053
110615,121064
110681,121065
110721,121137
110757,121132
110819,121172
110876,121203
110916,121232
110970,121282
110985,121278
111057,121291
111108,121340
111141,121326
111207,121395
111255,121397
111328,121428
111360,121483
111391,121464
111493,121547
111511,121528
111576,121568
111626,121563
111641,121599
111655,121634
111688,121629
111728,121670
111722,121641
111799,121663
111769,121693
111803,121683
111855,121719
111836,121688
111862,121699
111846,121730
111904,121699
111912,121764
111902,121744
111974,121742
111942,121790
111946,121754
111965,121793
111984,121782
112033,121806
112051,121775
112068,121804
112040,121815
112089,121830
112081,121851
112103,121817
112116,121852
112110,121878
112134,121851
112208,121881
112154,121914
112201,121864
112248,121932
112230,121876
112264,121945
112254,121903
112281,121922
112305,121963
112282,121950
112309,121928
112314,122001
112297,121955
112389,121967
112312,121959
112372,121960
112339,121988
112376,121967
112388,122023
112405,122000
112406,122027
112382,122002
112400,122037
112404,122019
112403,122021
112450,122020
112422,122053
112396,122022
112484,122039
112415,122038
112469,122001
112467,122065
112432,122030
112486,122036
112453,122056
112520,122023
112498,122069
112474,122022
112533,122061
112520,122058
112549,122110
112566,122081
112534,122064
112588,122089
112577,122073
112610,122083
112618,122099
112663,122101
112656,122095
112654,122116
112695,122128
112669,122111
112709,122121
112681,122114
112725,122148
112730,122133
112747,122130
112763,122150
112731,122140
112750,122164
112791,122153
112793,122164
112825,122170
112797,122183
112836,122172
112808,122194
112852,122177
112866,122201
112868,122198
112892,122208
112877,122206
112890,122213
112926,122212
112927,122226
112907,122225
112956,122198
112947,122233
112954,122219
112990,122235
112960,122244
113003,122200
113011,122249
112970,122234
113025,122242
113015,122282
113041,122228
113058,122278
113022,122249
113090,122284
113064,122304
113071,122272
113076,122269
113097,122289
113101,122296
113093,122331
113092,122285
113144,122324
113130,122279
113178,122326
113125,122361
113160,122305
113188,122352
113147,122313
113174,122312
113186,122381
113179,122314
113212,122353
113178,122333
113199,122339
113209,122343
113186,122386
113231,122339
113234,122332
113241,122352
113227,122394
113258,122362
113273,122390
113237,122379
113323,122388
113264,122429
113285,122396
113282,122416
113304,122400
113329,122444
113270,122403
113267,122389
113300,122407
113214,122396
113173,122346
113120,122283
112987,122234
112755,122101
112544,121940
112265,121828
112029,121669
111891,121620
111699,121562
111608,121426
111470,121383
111317,121256
111165,121240
111010,121148
110937,121095
110856,121032
110700,120986
110646,120967
110626,120940
110532,120947
110480,120889
110477,120887
110427,120915
110401,120851
110441,120923
110396,120868
110440,120896
110423,120913
110454,120908
110486,120978
110473,120935
110551,120972
110558,120987
110633,121020
110620,121008
110705,121041
110738,121070
110745,121099
110772,121059
110814,121128
110803,121100
110881,121123
110885,121144
110870,121132
110844,121103
110842,121078
110822,121138
110792,121080
110790,121084
110773,121087
110777,121061
110737,121040
110789,121072
110726,121087
110781,121063
110828,121108
110834,121077
110874,121126
110890,121133
110980,121161
110994,121212
111035,121191
111121,121264
111105,121300
111166,121283
111210,121340
111221,121318
111256,121323
111267,121318
111279,121341
111267,121320
111286,121353
111244,121309
111260,121303
111215,121314
111189,121269
111196,121299
111117,121255
111151,121237
111051,121235
111056,121178
111021,121221
110997,121138
110992,121150
110968,121172
110975,121172
110962,121154
111012,121184
110969,121171
110966,121174
111005,121212
111000,121159
111018,121201
111034,121215
111013,121197
111063,121192
111069,121260
111082,121227
111148,121266
111161,121274
111205,121289
111258,121293
111291,121355
111338,121399
111348,121363
111406,121383
111439,121455
111487,121415
111519,121476
111529,121479
111599,121481
111630,121558
111637,121509
111710,121573
111689,121550
111747,121593
111760,121571
111789,121592
111780,121582
111834,121626
111833,121611
111868,121652
111880,121687
111884,121632
111934,121674
111913,121700
111953,121683
111915,121687
111961,121663
111961,121696
111940,121681
111997,121711
111963,121732
111987,121675
112003,121713
112012,121700
112026,121698
112053,121731
112035,121702
112071,121728
112050,121765
112114,121777
112101,121780
112095,121756
112134,121754
112155,121797
112139,121757
112152,121783
112156,121782
112176,121771
112179,121825
112189,121796
112197,121813
112170,121783
112198,121804
112165,121830
112151,121790
112171,121817
112155,121774
112178,121791
112162,121824
112166,121796
112213,121845
112158,121794
112194,121819
112199,121843
112196,121833
112240,121825
112207,121814
112260,121884
112256,121879
112288,121876
112278,121850
112338,121884
112291,121916
112330,121877
112332,121894
112329,121881
112357,121905
112369,121928
112407,121902
112408,121956
112394,121913
112451,121969
112433,121971
112481,121961
112477,121967
112516,121961
112487,121989
112525,121984
112536,121982
112523,122029
112580,122025
112563,122017
112616,122018
112597,122073
112614,122024
112679,122085
112639,122048
112672,122078
112669,122115
112682,122060
112737,122121
112726,122088
112766,122102
112742,122116
112791,122132
112812,122109
112831,122151
112799,122151
112843,122141
112840,122169
112864,122141
112852,122209
112850,122134
112893,122193
112880,122180
112912,122189
112935,122183
112904,122228
112917,122206
112947,122195
112981,122221
113001,122210
112981,122263
113013,122229
113017,122273
113005,122243
113062,122263
113012,122295
113056,122244
113087,122299
113063,122251
113089,122284
113074,122305
113118,122301
113084,122327
113114,122270
113132,122279
113127,122323
113141,122315
113104,122294
113157,122308
113162,122326
113166,122276
113170,122328
113123,122318
113195,122314
113193,122346
113186,122285
113200,122342
113171,122323
113229,122328
113209,122336
113223,122305
113001,122210
113209,122333
113253,122344
113262,122355
113257,122345
113286,122389
113254,122357
113285,122357
113249,122390
113239,122326
113243,122351
113178,122298
113086,122232
112964,122213
112805,122046
112616,121971
112372,121892
112177,121747
111982,121647
111906,121588
111717,121485
111610,121422
111454,121347
111389,121279
111273,121261
111175,121180
111121,121195
111024,121133
111002,121107
110965,121156
110955,121099
110943,121134
110934,121096
110980,121128
110962,121155
110972,121156
111018,121181
111037,121212
111084,121213
111160,121270
111143,121272
111229,121277
111240,121327
111276,121313
111348,121372
111326,121364
111374,121367
111408,121415
111425,121374
111462,121420
111478,121442
111521,121443
111544,121437
111547,121451
111548,121473
111578,121453
111563,121473
111531,121450
111615,121451
111578,121485
111592,121459
111628,121503
111660,121506
111644,121530
111670,121511
111737,121525
111740,121589
111792,121585
111851,121622
111872,121622
111903,121618
111948,121653
111932,121656
111978,121649
111993,121701
112021,121657
112023,121695
112005,121695
112056,121698
112025,121709
112014,121667
112036,121699
112006,121674
112014,121657
111979,121682
111955,121618
111956,121647
111935,121607
111940,121626
111904,121590
111931,121613
111928,121576
111927,121610
111902,121626
111932,121597
111940,121619
111882,121565
111954,121613
111948,121626
111955,121574
111997,121648
111966,121618
112005,121630
112050,121662
112040,121675
112078,121661
112053,121671
112077,121681
112093,121730
112115,121695
112149,121742
112128,121694
112175,121738
112216,121739
112179,121785
112193,121746
112246,121784
112249,121812
112257,121774
112277,121818
112292,121819
112300,121809
112338,121839
112360,121865
112334,121845
112394,121846
112390,121885
112381,121838
112461,121905
112405,121876
112444,121871
112431,121900
112462,121884
112476,121941
112457,121918
112543,121933
112499,121923
112528,121933
112577,121948
112564,121975
112605,121998
112610,121934
112613,121972
112620,121984
112683,122000
112680,122020
112678,121972
112721,122030
112689,122045
112744,122015
112753,122060
112754,122031
112767,122058
112763,122047
112811,122065
112798,122063
112811,122044
112830,122070
112829,122080
112859,122102
112831,122093
112900,122140
112869,122105
112911,122135
112862,122114
112904,122124
112928,122151
112878,122130
112934,122135
112920,122140
112927,122094
112931,122144
112922,122128
112954,122113
112944,122149
112881,122138
112897,122106
112911,122101
112885,122112
112904,122098
112891,122134
112905,122089
112921,122137
112892,122116
112911,122119
112893,122154
112922,122150
112925,122121
112939,122154
112916,122157
112936,122154
112896,122157
112962,122167
112959,122142
112953,122151
112933,122141
112969,122147
112968,122170
112965,122133
113016,122141
112977,122187
113016,122139
113037,122209
113022,122156
113032,122186
113036,122210
113089,122200
113063,122226
113101,122219
113088,122217
113126,122235
113137,122223
113147,122252
113151,122257
113149,122256
113177,122265
113151,122283
113200,122276
113182,122257
113216,122283
113196,122263
113237,122281
113219,122276
113217,122289
113224,122278
113224,122272
113270,122300
113251,122292
113283,122282
113264,122276
113300,122297
113330,122298
113291,122316
113325,122315
113307,122327
113349,122322
113335,122361
113331,122324
113360,122352
113333,122297
113404,122344
113377,122334
113385,122328
113363,122332
113413,122346
113416,122333
113413,122367
113405,122330
113438,122348
113420,122367
113438,122346
113473,122379
113438,122385
113460,122357
113460,122391
113498,122360
113487,122408
113444,122354
113479,122389
113506,122368
113509,122378
113491,122407
113508,122391
113501,122427
113496,122374
113540,122455
113503,122420
113545,122403
113536,122440
113541,122393
113536,122452
113549,122436
113586,122409
113561,122470
113559,122432
113590,122466
113597,122445
113575,122421
113602,122483
113591,122472
113609,122442
113559,122440
113605,122451
113552,122440
113561,122421
113520,122427
113507,122377
113436,122315
113326,122275
113147,122207
112960,122056
112754,121973
112459,121770
112258,121682
112088,121593
111881,121455
111734,121411
111522,121285
111403,121212
111249,121195
111137,121085
110992,121042
110843,120941
110773,120906
110636,120904
110568,120813
110537,120820
110441,120778
110435,120762
110382,120766
110380,120739
110372,120753
110371,120746
110360,120755
110345,120770
110387,120769
110381,120800
110418,120760
110442,120800
110425,120779
110493,120833
110465,120872
110522,120827
110571,120877
110560,120850
110624,120870
110584,120920
110588,120901
110613,120921
110613,120932
110586,120888
110571,120882
110550,120887
110548,120842
110503,120871
110475,120804
110496,120859
110451,120821
110445,120815
110485,120837
110456,120852
110440,120785
110489,120829
110481,120874
110496,120848
110527,120853
110589,120908
110608,120907
110653,120942
110681,120918
110683,120975
110700,120951
110762,120982
110733,121006
110746,120947
110788,120998
110734,120976
110774,120957
110771,120995
110740,120932
110750,120994
110717,120946
110711,120926
110701,120930
110635,120926
110614,120938
110602,120853
110573,120890
110501,120841
110503,120840
110432,120828
110415,120759
110372,120778
110320,120757
110344,120747
110290,120754
110292,120684
110282,120771
110247,120717
110268,120748
110247,120712
110320,120779
110316,120762
110320,120777
110402,120784
110402,120833
110469,120793
110515,120857
110537,120902
110566,120893
110656,120923
110693,120981
110701,120985
110819,121016
110815,121030
110883,121043
110927,121080
110983,121086
111016,121118
110999,121107
111087,121126
111050,121179
111099,121133
111158,121225
111137,121183
111179,121211
111221,121248
111240,121194
111268,121267
111281,121240
111334,121263
111306,121284
111363,121277
111389,121299
111412,121340
111453,121348
111464,121349
111482,121333
111565,121396
111537,121399
111598,121400
111599,121458
111607,121409
111660,121478
111667,121470
111716,121449
111717,121491
111726,121485
111778,121499
111745,121534
111760,121518
111778,121510
111815,121520
111810,121518
111830,121552
111795,121528
111803,121560
111806,121534
111835,121539
111819,121545
111811,121504
111822,121547
111811,121555
111854,121516
111842,121548
111824,121535
111864,121557
111869,121554
111869,121550
111899,121544
111900,121572
111921,121602
111939,121630
112004,121611
111991,121639
112026,121598
112094,121664
112060,121680
112085,121661
112102,121702
112126,121649
112127,121700
112181,121718
112162,121696
112201,121692
112214,121743
112244,121737
112229,121747
112264,121793
112267,121727
112297,121787
112291,121768
112336,121758
112324,121807
112332,121773
112396,121821
112344,121791
112407,121793
112419,121846
112422,121793
112466,121858
112420,121841
112462,121844
112509,121841
112473,121853
112511,121855
112503,121861
112493,121896
112527,121864
112559,121890
112510,121916
112552,121882
112583,121934
112577,121882
112593,121917
112582,121912
112638,121940
112605,121951
112659,121919
112691,121961
112693,121936
112712,121936
112705,121998
112705,121942
112738,121978
112728,121974
112757,121966
112750,122012
112763,121979
112817,122001
112768,121991
112811,122011
112816,122036
112851,122019
112832,122049
112855,122058
112867,122046
112857,122061
112904,122047
112861,122068
112885,122080
112895,122052
112959,122098
112916,122063
112962,122082
112942,122100
112962,122053
112999,122124
112971,122079
113031,122104
112991,122127
113021,122104
113058,122158
113029,122113
113081,122131
113072,122111
113103,122159
113064,122148
113109,122132
113132,122162
113096,122122
113128,122137
113181,122187
113164,122144
113217,122183
113166,122188
113213,122171
113229,122220
113234,122161
113266,122184
113213,122217
113237,122180
113222,122225
113207,122178
113224,122164
113124,122136
113076,122076
112980,122045
112805,121916
112626,121843
112374,121689
112199,121630
112038,121504
111855,121436
111687,121303
111558,121244
111338,121155
111230,121066
111049,120975
110869,120905
110738,120822
110610,120801
110450,120677
110369,120674
110263,120643
110231,120589
110178,120598
110141,120545
110147,120564
110077,120593
110115,120546
110143,120602
110116,120571
110172,120592
110170,120624
110245,120645
110256,120645
110327,120673
110314,120706
110356,120713
110416,120719
110424,120779
110472,120744
110497,120789
110485,120764
110542,120783
110509,120816
110552,120781
110576,120815
110527,120813
110559,120798
110593,120842
110578,120824
110582,120839
110616,120834
110623,120853
110642,120888
110689,120854
110729,120924
110741,120891
110842,120958
110849,121017
110951,121050
111013,121068
111102,121094
111164,121140
111193,121194
111275,121201
111375,121269
111375,121257
111403,121303
111483,121282
111483,121284
111545,121304
111515,121353
111542,121301
111571,121342
111518,121314
111550,121289
111496,121320
111499,121279
111531,121326
